# OpenSignals Text File Format. Version 1
# {"00:07:80:F9:DD:B8": {"position": 0, "device": "biosignalsplux", "device name": "00:07:80:F9:DD:B8", "device connection": "BTH00:07:80:F9:DD:B8", "sampling rate": 1000, "resolution": [16], "firmware version": 773, "comments": "Sample EOG sensor for horizontal eye movement tracking (horizontal sensor positioning).", "keywords": "", "mode": 0, "sync interval": 2, "date": "2020-4-17", "time": "11:36:49.726", "channels": [1], "sensor": ["RAW"], "label": ["EOG"], "column": ["nSeq", "DI", "EOG"], "special": [{}], "digital IO": [0, 1]}}
# EndOfHeader
0	0	29141	
1	0	29117	
2	0	29188	
3	0	29272	
4	0	29295	
5	0	29321	
6	0	29401	
7	0	29353	
8	0	29265	
9	0	29145	
10	0	29131	
11	0	29281	
12	0	29297	
13	0	29337	
14	0	29321	
15	0	29343	
16	0	29284	
17	0	29262	
18	0	29196	
19	0	29300	
20	0	29304	
21	0	29234	
22	0	29156	
23	0	29277	
24	0	29280	
25	0	29350	
26	0	29325	
27	0	29417	
28	0	29533	
29	0	29495	
30	0	29401	
31	0	29437	
32	0	29319	
33	0	29295	
34	0	29273	
35	0	29209	
36	0	29165	
37	0	29199	
38	0	29260	
39	0	29284	
40	0	29309	
41	0	29408	
42	0	29443	
43	0	29425	
44	0	29541	
45	0	29549	
46	0	29463	
47	0	29468	
48	0	29551	
49	0	29567	
50	0	29604	
51	0	29617	
52	0	29580	
53	0	29592	
54	0	29724	
55	0	29713	
56	0	29669	
57	0	29719	
58	0	29741	
59	0	29725	
60	0	29785	
61	0	29671	
62	0	29632	
63	0	29621	
64	0	29637	
65	0	29557	
66	0	29644	
67	0	29593	
68	0	29641	
69	0	29675	
70	0	29648	
71	0	29606	
72	0	29711	
73	0	29648	
74	0	29575	
75	0	29487	
76	0	29481	
77	0	29445	
78	0	29481	
79	0	29479	
80	0	29422	
81	0	29393	
82	0	29248	
83	0	29343	
84	0	29281	
85	0	29339	
86	0	29389	
87	0	29476	
88	0	29483	
89	0	29385	
90	0	29420	
91	0	29457	
92	0	29499	
93	0	29527	
94	0	29539	
95	0	29568	
96	0	29580	
97	0	29515	
98	0	29535	
99	0	29588	
100	0	29672	
101	0	29749	
102	0	29725	
103	0	29774	
104	0	29684	
105	0	29653	
106	0	29649	
107	0	29553	
108	0	29505	
109	0	29550	
110	0	29473	
111	0	29433	
112	0	29485	
113	0	29444	
114	0	29495	
115	0	29540	
116	0	29553	
117	0	29420	
118	0	29328	
119	0	29341	
120	0	29224	
121	0	29185	
122	0	29216	
123	0	29204	
124	0	29240	
125	0	29401	
126	0	29357	
127	0	29409	
128	0	29325	
129	0	29295	
130	0	29273	
131	0	29221	
132	0	29256	
133	0	29284	
134	0	29423	
135	0	29397	
136	0	29348	
137	0	29342	
138	0	29389	
139	0	29380	
140	0	29412	
141	0	29444	
142	0	29373	
143	0	29361	
144	0	29387	
145	0	29325	
146	0	29409	
147	0	29413	
148	0	29433	
149	0	29501	
150	0	29527	
151	0	29519	
152	0	29528	
153	0	29519	
154	0	29529	
155	0	29629	
156	0	29680	
157	0	29735	
158	0	29697	
159	0	29641	
160	0	29617	
161	0	29631	
162	0	29660	
163	0	29653	
164	0	29653	
165	0	29797	
166	0	29772	
167	0	29817	
168	0	29857	
169	0	29964	
170	0	29913	
171	0	29837	
172	0	29784	
173	0	29732	
174	0	29759	
175	0	29670	
176	0	29700	
177	0	29633	
178	0	29645	
179	0	29705	
180	0	29751	
181	0	29613	
182	0	29602	
183	0	29601	
184	0	29697	
185	0	29753	
186	0	29829	
187	0	29784	
188	0	29832	
189	0	29881	
190	0	29904	
191	0	29921	
192	0	30055	
193	0	30107	
194	0	30173	
195	0	30180	
196	0	30100	
197	0	29980	
198	0	30032	
199	0	30034	
200	0	30011	
201	0	29985	
202	0	30113	
203	0	30101	
204	0	30000	
205	0	30004	
206	0	29947	
207	0	29876	
208	0	29889	
209	0	29829	
210	0	29984	
211	0	30007	
212	0	29970	
213	0	29961	
214	0	30089	
215	0	30173	
216	0	30235	
217	0	30173	
218	0	30063	
219	0	30037	
220	0	30055	
221	0	30073	
222	0	30108	
223	0	30160	
224	0	30169	
225	0	30137	
226	0	30468	
227	0	30741	
228	0	30975	
229	0	31140	
230	0	31100	
231	0	31063	
232	0	31000	
233	0	30665	
234	0	30324	
235	0	29863	
236	0	29537	
237	0	29256	
238	0	29189	
239	0	29124	
240	0	29152	
241	0	29281	
242	0	29361	
243	0	29276	
244	0	29215	
245	0	29145	
246	0	29070	
247	0	28916	
248	0	28993	
249	0	29028	
250	0	28993	
251	0	28913	
252	0	28885	
253	0	28896	
254	0	28853	
255	0	28861	
256	0	28865	
257	0	28869	
258	0	28904	
259	0	28893	
260	0	28828	
261	0	28817	
262	0	28732	
263	0	28680	
264	0	28505	
265	0	28503	
266	0	28503	
267	0	28409	
268	0	28313	
269	0	28264	
270	0	28279	
271	0	28324	
272	0	28309	
273	0	28392	
274	0	28428	
275	0	28481	
276	0	28596	
277	0	28629	
278	0	28761	
279	0	28849	
280	0	28940	
281	0	28885	
282	0	28879	
283	0	28863	
284	0	28891	
285	0	28949	
286	0	29005	
287	0	29076	
288	0	29107	
289	0	29089	
290	0	29105	
291	0	29072	
292	0	29001	
293	0	28908	
294	0	28909	
295	0	28866	
296	0	28861	
297	0	28945	
298	0	28953	
299	0	28937	
300	0	28930	
301	0	28992	
302	0	29033	
303	0	29073	
304	0	29185	
305	0	29327	
306	0	29440	
307	0	29415	
308	0	29410	
309	0	29398	
310	0	29319	
311	0	29312	
312	0	29213	
313	0	29101	
314	0	29047	
315	0	29172	
316	0	29277	
317	0	29229	
318	0	29261	
319	0	29282	
320	0	29303	
321	0	29287	
322	0	29291	
323	0	29184	
324	0	29197	
325	0	29225	
326	0	29285	
327	0	29386	
328	0	29402	
329	0	29409	
330	0	29348	
331	0	29270	
332	0	29168	
333	0	29169	
334	0	29119	
335	0	29068	
336	0	29122	
337	0	29165	
338	0	29156	
339	0	29125	
340	0	29181	
341	0	29199	
342	0	29199	
343	0	29311	
344	0	29380	
345	0	29401	
346	0	29468	
347	0	29385	
348	0	29292	
349	0	29313	
350	0	29194	
351	0	29085	
352	0	29144	
353	0	29249	
354	0	29181	
355	0	29202	
356	0	29197	
357	0	29308	
358	0	29401	
359	0	29379	
360	0	29387	
361	0	29483	
362	0	29564	
363	0	29473	
364	0	29357	
365	0	29297	
366	0	29317	
367	0	29404	
368	0	29448	
369	0	29421	
370	0	29444	
371	0	29487	
372	0	29620	
373	0	29805	
374	0	29821	
375	0	29780	
376	0	29785	
377	0	29825	
378	0	29680	
379	0	29743	
380	0	29649	
381	0	29704	
382	0	29644	
383	0	29700	
384	0	29645	
385	0	29700	
386	0	29797	
387	0	29687	
388	0	29713	
389	0	29869	
390	0	30094	
391	0	30122	
392	0	29964	
393	0	29804	
394	0	29841	
395	0	29778	
396	0	29669	
397	0	29337	
398	0	29260	
399	0	29303	
400	0	29403	
401	0	29536	
402	0	29664	
403	0	29938	
404	0	30127	
405	0	30221	
406	0	30288	
407	0	30273	
408	0	30161	
409	0	30053	
410	0	29763	
411	0	29847	
412	0	30003	
413	0	30023	
414	0	30109	
415	0	30023	
416	0	30000	
417	0	30088	
418	0	30101	
419	0	29953	
420	0	29933	
421	0	29799	
422	0	29933	
423	0	30139	
424	0	30195	
425	0	30175	
426	0	30101	
427	0	29986	
428	0	30001	
429	0	30073	
430	0	30149	
431	0	29999	
432	0	29851	
433	0	29691	
434	0	29727	
435	0	29904	
436	0	29990	
437	0	29849	
438	0	29732	
439	0	29871	
440	0	29968	
441	0	30073	
442	0	30141	
443	0	30260	
444	0	30311	
445	0	30333	
446	0	30375	
447	0	30361	
448	0	30280	
449	0	30232	
450	0	30276	
451	0	30308	
452	0	30365	
453	0	30364	
454	0	30460	
455	0	30459	
456	0	30384	
457	0	30319	
458	0	30275	
459	0	30225	
460	0	30172	
461	0	30191	
462	0	30189	
463	0	30183	
464	0	30144	
465	0	30232	
466	0	30252	
467	0	30247	
468	0	30131	
469	0	30041	
470	0	30107	
471	0	30149	
472	0	30349	
473	0	30375	
474	0	30263	
475	0	30292	
476	0	30182	
477	0	30157	
478	0	30191	
479	0	30233	
480	0	30252	
481	0	30124	
482	0	30189	
483	0	30285	
484	0	30387	
485	0	30456	
486	0	30413	
487	0	30405	
488	0	30427	
489	0	30572	
490	0	30700	
491	0	30604	
492	0	30440	
493	0	30400	
494	0	30215	
495	0	30364	
496	0	30561	
497	0	30649	
498	0	30656	
499	0	30665	
500	0	30645	
501	0	30594	
502	0	30531	
503	0	30421	
504	0	30419	
505	0	30459	
506	0	30481	
507	0	30560	
508	0	30481	
509	0	30337	
510	0	30249	
511	0	30233	
512	0	30237	
513	0	30185	
514	0	30176	
515	0	30257	
516	0	30205	
517	0	30232	
518	0	30223	
519	0	30223	
520	0	30213	
521	0	30250	
522	0	30313	
523	0	30343	
524	0	30164	
525	0	29932	
526	0	29985	
527	0	30120	
528	0	30261	
529	0	30329	
530	0	30388	
531	0	30501	
532	0	30445	
533	0	30425	
534	0	30581	
535	0	30587	
536	0	30603	
537	0	30423	
538	0	30417	
539	0	30525	
540	0	30701	
541	0	30944	
542	0	30871	
543	0	30684	
544	0	30565	
545	0	30521	
546	0	30505	
547	0	30377	
548	0	30429	
549	0	30502	
550	0	30549	
551	0	30431	
552	0	30403	
553	0	30752	
554	0	30761	
555	0	30435	
556	0	30275	
557	0	30489	
558	0	30683	
559	0	30537	
560	0	30356	
561	0	30286	
562	0	30259	
563	0	30272	
564	0	30307	
565	0	30400	
566	0	30553	
567	0	30767	
568	0	30649	
569	0	30536	
570	0	30552	
571	0	30537	
572	0	30595	
573	0	30573	
574	0	30444	
575	0	30472	
576	0	30423	
577	0	30423	
578	0	30487	
579	0	30493	
580	0	30437	
581	0	30485	
582	0	30497	
583	0	30375	
584	0	30349	
585	0	30380	
586	0	30367	
587	0	30452	
588	0	30476	
589	0	30539	
590	0	30489	
591	0	30377	
592	0	30305	
593	0	30345	
594	0	30372	
595	0	30308	
596	0	30183	
597	0	30181	
598	0	30205	
599	0	30272	
600	0	30309	
601	0	30328	
602	0	30255	
603	0	30149	
604	0	30308	
605	0	30467	
606	0	30287	
607	0	30156	
608	0	30287	
609	0	30385	
610	0	30377	
611	0	30453	
612	0	30467	
613	0	30512	
614	0	30599	
615	0	30501	
616	0	30628	
617	0	30666	
618	0	30757	
619	0	30665	
620	0	30601	
621	0	30693	
622	0	30865	
623	0	30869	
624	0	30912	
625	0	30756	
626	0	30724	
627	0	30711	
628	0	30756	
629	0	30740	
630	0	30629	
631	0	30633	
632	0	30667	
633	0	30777	
634	0	30677	
635	0	30641	
636	0	30544	
637	0	30449	
638	0	30449	
639	0	30440	
640	0	30407	
641	0	30387	
642	0	30403	
643	0	30529	
644	0	30631	
645	0	30705	
646	0	30717	
647	0	30681	
648	0	30644	
649	0	30691	
650	0	30785	
651	0	30837	
652	0	30816	
653	0	30801	
654	0	30909	
655	0	30905	
656	0	30998	
657	0	31059	
658	0	31043	
659	0	31081	
660	0	31118	
661	0	31193	
662	0	31035	
663	0	30857	
664	0	30903	
665	0	30961	
666	0	31063	
667	0	31081	
668	0	31103	
669	0	31131	
670	0	31188	
671	0	31188	
672	0	31204	
673	0	31200	
674	0	31295	
675	0	31312	
676	0	31350	
677	0	31419	
678	0	31343	
679	0	31200	
680	0	31168	
681	0	31179	
682	0	31025	
683	0	31073	
684	0	31187	
685	0	31199	
686	0	31184	
687	0	31133	
688	0	31081	
689	0	30971	
690	0	30819	
691	0	30932	
692	0	31021	
693	0	31076	
694	0	30989	
695	0	30793	
696	0	30738	
697	0	30793	
698	0	30741	
699	0	30737	
700	0	30789	
701	0	30907	
702	0	30949	
703	0	30960	
704	0	31061	
705	0	31065	
706	0	30969	
707	0	30908	
708	0	30860	
709	0	30736	
710	0	30598	
711	0	30585	
712	0	30619	
713	0	30565	
714	0	30597	
715	0	30603	
716	0	30672	
717	0	30685	
718	0	30709	
719	0	30708	
720	0	30677	
721	0	30723	
722	0	30720	
723	0	30693	
724	0	30809	
725	0	30751	
726	0	30766	
727	0	30773	
728	0	30829	
729	0	30895	
730	0	30823	
731	0	30831	
732	0	30811	
733	0	30857	
734	0	30976	
735	0	30946	
736	0	30927	
737	0	31041	
738	0	31069	
739	0	31126	
740	0	31098	
741	0	31103	
742	0	31132	
743	0	31152	
744	0	31143	
745	0	31218	
746	0	31215	
747	0	31215	
748	0	31252	
749	0	31225	
750	0	31271	
751	0	31203	
752	0	31232	
753	0	31143	
754	0	31142	
755	0	31215	
756	0	31113	
757	0	31149	
758	0	31228	
759	0	31309	
760	0	31233	
761	0	31275	
762	0	31321	
763	0	31363	
764	0	31240	
765	0	31181	
766	0	31161	
767	0	31095	
768	0	31043	
769	0	31065	
770	0	31166	
771	0	31036	
772	0	31071	
773	0	31125	
774	0	31024	
775	0	30959	
776	0	30961	
777	0	30925	
778	0	30788	
779	0	30692	
780	0	30665	
781	0	30769	
782	0	30897	
783	0	31089	
784	0	31138	
785	0	31121	
786	0	31108	
787	0	31063	
788	0	31013	
789	0	30911	
790	0	30821	
791	0	30661	
792	0	30713	
793	0	30756	
794	0	30704	
795	0	30751	
796	0	30764	
797	0	30708	
798	0	30692	
799	0	30806	
800	0	30765	
801	0	30789	
802	0	30839	
803	0	30774	
804	0	30599	
805	0	30677	
806	0	30714	
807	0	30725	
808	0	30775	
809	0	30825	
810	0	30840	
811	0	30812	
812	0	30872	
813	0	30849	
814	0	30822	
815	0	30843	
816	0	30959	
817	0	30991	
818	0	31025	
819	0	31124	
820	0	31139	
821	0	31279	
822	0	31333	
823	0	31216	
824	0	31238	
825	0	31157	
826	0	31136	
827	0	31265	
828	0	31299	
829	0	31431	
830	0	31476	
831	0	31585	
832	0	31783	
833	0	31761	
834	0	31712	
835	0	31825	
836	0	31932	
837	0	31916	
838	0	31943	
839	0	31956	
840	0	31985	
841	0	31996	
842	0	31937	
843	0	31941	
844	0	31878	
845	0	31852	
846	0	31816	
847	0	31770	
848	0	31783	
849	0	31793	
850	0	31837	
851	0	31810	
852	0	31843	
853	0	31847	
854	0	31820	
855	0	31797	
856	0	31673	
857	0	31551	
858	0	31579	
859	0	31615	
860	0	31673	
861	0	31468	
862	0	31408	
863	0	31261	
864	0	31185	
865	0	31193	
866	0	31070	
867	0	31061	
868	0	31059	
869	0	31084	
870	0	31013	
871	0	30955	
872	0	31029	
873	0	31106	
874	0	31059	
875	0	31060	
876	0	31007	
877	0	30996	
878	0	30988	
879	0	30984	
880	0	31075	
881	0	31153	
882	0	31177	
883	0	31214	
884	0	31244	
885	0	31297	
886	0	31305	
887	0	31249	
888	0	31257	
889	0	31296	
890	0	31312	
891	0	31409	
892	0	31387	
893	0	31277	
894	0	31375	
895	0	31463	
896	0	31473	
897	0	31513	
898	0	31541	
899	0	31588	
900	0	31645	
901	0	31793	
902	0	31881	
903	0	31983	
904	0	32025	
905	0	32024	
906	0	32001	
907	0	32080	
908	0	32070	
909	0	32165	
910	0	32184	
911	0	32181	
912	0	32308	
913	0	32296	
914	0	32381	
915	0	32385	
916	0	32413	
917	0	32501	
918	0	32585	
919	0	32593	
920	0	32577	
921	0	32539	
922	0	32607	
923	0	32756	
924	0	32708	
925	0	32756	
926	0	32773	
927	0	32724	
928	0	32669	
929	0	32711	
930	0	32697	
931	0	32765	
932	0	32887	
933	0	32898	
934	0	32895	
935	0	32760	
936	0	32746	
937	0	32600	
938	0	32569	
939	0	32463	
940	0	32332	
941	0	32132	
942	0	31948	
943	0	31853	
944	0	31892	
945	0	31975	
946	0	31956	
947	0	31825	
948	0	31739	
949	0	31737	
950	0	31629	
951	0	31412	
952	0	31335	
953	0	31299	
954	0	31283	
955	0	31333	
956	0	31336	
957	0	31371	
958	0	31315	
959	0	31353	
960	0	31273	
961	0	31210	
962	0	31164	
963	0	31166	
964	0	31087	
965	0	31153	
966	0	31180	
967	0	31189	
968	0	31111	
969	0	31064	
970	0	31105	
971	0	31168	
972	0	31247	
973	0	31160	
974	0	31181	
975	0	31150	
976	0	31219	
977	0	31281	
978	0	31201	
979	0	31260	
980	0	31421	
981	0	31413	
982	0	31457	
983	0	31425	
984	0	31249	
985	0	31183	
986	0	31141	
987	0	31153	
988	0	31288	
989	0	31510	
990	0	31729	
991	0	31805	
992	0	31900	
993	0	31972	
994	0	31970	
995	0	31964	
996	0	31877	
997	0	31947	
998	0	31903	
999	0	31982	
1000	0	32037	
1001	0	32088	
1002	0	32124	
1003	0	32148	
1004	0	32301	
1005	0	32344	
1006	0	32344	
1007	0	32343	
1008	0	32293	
1009	0	32487	
1010	0	32495	
1011	0	32480	
1012	0	32464	
1013	0	32399	
1014	0	32389	
1015	0	32371	
1016	0	32403	
1017	0	32501	
1018	0	32404	
1019	0	32373	
1020	0	32423	
1021	0	32609	
1022	0	32667	
1023	0	32702	
1024	0	32645	
1025	0	32548	
1026	0	32544	
1027	0	32573	
1028	0	32585	
1029	0	32552	
1030	0	32476	
1031	0	32416	
1032	0	32415	
1033	0	32331	
1034	0	32272	
1035	0	32431	
1036	0	32501	
1037	0	32491	
1038	0	32544	
1039	0	32408	
1040	0	32330	
1041	0	32293	
1042	0	32305	
1043	0	32204	
1044	0	32127	
1045	0	32034	
1046	0	32113	
1047	0	32049	
1048	0	31960	
1049	0	31936	
1050	0	31933	
1051	0	31892	
1052	0	31919	
1053	0	31939	
1054	0	31973	
1055	0	32033	
1056	0	31880	
1057	0	31811	
1058	0	31884	
1059	0	31905	
1060	0	31753	
1061	0	31671	
1062	0	31731	
1063	0	31737	
1064	0	31624	
1065	0	31499	
1066	0	31572	
1067	0	31640	
1068	0	31609	
1069	0	31479	
1070	0	31496	
1071	0	31412	
1072	0	31306	
1073	0	31185	
1074	0	31177	
1075	0	31128	
1076	0	31044	
1077	0	31063	
1078	0	30992	
1079	0	31044	
1080	0	31067	
1081	0	31104	
1082	0	31109	
1083	0	31023	
1084	0	31000	
1085	0	31077	
1086	0	31229	
1087	0	31250	
1088	0	31213	
1089	0	31189	
1090	0	31232	
1091	0	31375	
1092	0	31299	
1093	0	31388	
1094	0	31349	
1095	0	31443	
1096	0	31466	
1097	0	31496	
1098	0	31533	
1099	0	31696	
1100	0	31996	
1101	0	32041	
1102	0	32101	
1103	0	32292	
1104	0	32313	
1105	0	32191	
1106	0	32169	
1107	0	32245	
1108	0	32156	
1109	0	32252	
1110	0	32356	
1111	0	32461	
1112	0	32577	
1113	0	32593	
1114	0	32621	
1115	0	32708	
1116	0	32696	
1117	0	32640	
1118	0	32686	
1119	0	32687	
1120	0	32700	
1121	0	32586	
1122	0	32601	
1123	0	32529	
1124	0	32687	
1125	0	32725	
1126	0	32762	
1127	0	32741	
1128	0	32608	
1129	0	32628	
1130	0	32585	
1131	0	32543	
1132	0	32587	
1133	0	32557	
1134	0	32431	
1135	0	32349	
1136	0	32292	
1137	0	32293	
1138	0	32364	
1139	0	32388	
1140	0	32473	
1141	0	32594	
1142	0	32670	
1143	0	32673	
1144	0	32692	
1145	0	32719	
1146	0	32683	
1147	0	32557	
1148	0	32351	
1149	0	32319	
1150	0	32277	
1151	0	32301	
1152	0	32412	
1153	0	32420	
1154	0	32412	
1155	0	32462	
1156	0	32457	
1157	0	32493	
1158	0	32425	
1159	0	32279	
1160	0	32381	
1161	0	32501	
1162	0	32501	
1163	0	32577	
1164	0	32665	
1165	0	32702	
1166	0	32697	
1167	0	32715	
1168	0	32657	
1169	0	32605	
1170	0	32649	
1171	0	32660	
1172	0	32537	
1173	0	32476	
1174	0	32543	
1175	0	32525	
1176	0	32531	
1177	0	32616	
1178	0	32648	
1179	0	32696	
1180	0	32575	
1181	0	32575	
1182	0	32587	
1183	0	32592	
1184	0	32584	
1185	0	32479	
1186	0	32421	
1187	0	32413	
1188	0	32432	
1189	0	32359	
1190	0	32352	
1191	0	32344	
1192	0	32365	
1193	0	32317	
1194	0	32217	
1195	0	32272	
1196	0	32178	
1197	0	32023	
1198	0	31901	
1199	0	31980	
1200	0	32017	
1201	0	32013	
1202	0	31923	
1203	0	31897	
1204	0	31876	
1205	0	31860	
1206	0	31835	
1207	0	31924	
1208	0	31906	
1209	0	31887	
1210	0	31855	
1211	0	31941	
1212	0	31913	
1213	0	31936	
1214	0	31901	
1215	0	31748	
1216	0	31757	
1217	0	31768	
1218	0	31849	
1219	0	31891	
1220	0	31839	
1221	0	31893	
1222	0	31841	
1223	0	31936	
1224	0	31885	
1225	0	31675	
1226	0	31484	
1227	0	31374	
1228	0	31215	
1229	0	31165	
1230	0	31153	
1231	0	31296	
1232	0	31407	
1233	0	31580	
1234	0	31875	
1235	0	32053	
1236	0	32289	
1237	0	32428	
1238	0	32435	
1239	0	32484	
1240	0	32620	
1241	0	32644	
1242	0	32679	
1243	0	32913	
1244	0	33027	
1245	0	33041	
1246	0	33068	
1247	0	33164	
1248	0	33265	
1249	0	33361	
1250	0	33517	
1251	0	33729	
1252	0	33817	
1253	0	33845	
1254	0	33827	
1255	0	33997	
1256	0	34044	
1257	0	34085	
1258	0	34069	
1259	0	34097	
1260	0	34155	
1261	0	34181	
1262	0	34269	
1263	0	34443	
1264	0	34591	
1265	0	34687	
1266	0	34797	
1267	0	34828	
1268	0	34845	
1269	0	34825	
1270	0	34848	
1271	0	34959	
1272	0	35081	
1273	0	35201	
1274	0	35153	
1275	0	35045	
1276	0	34997	
1277	0	34885	
1278	0	34839	
1279	0	34705	
1280	0	34719	
1281	0	34755	
1282	0	34624	
1283	0	34609	
1284	0	34628	
1285	0	34737	
1286	0	34807	
1287	0	34829	
1288	0	34798	
1289	0	34801	
1290	0	34669	
1291	0	34439	
1292	0	34316	
1293	0	34380	
1294	0	34343	
1295	0	34352	
1296	0	34387	
1297	0	34368	
1298	0	34249	
1299	0	34228	
1300	0	34355	
1301	0	34460	
1302	0	34532	
1303	0	34480	
1304	0	34620	
1305	0	34709	
1306	0	34681	
1307	0	34695	
1308	0	34689	
1309	0	34623	
1310	0	34692	
1311	0	34675	
1312	0	34621	
1313	0	34565	
1314	0	34687	
1315	0	34719	
1316	0	34751	
1317	0	34733	
1318	0	34733	
1319	0	34772	
1320	0	34824	
1321	0	34833	
1322	0	34872	
1323	0	34837	
1324	0	34853	
1325	0	34953	
1326	0	34989	
1327	0	35013	
1328	0	35064	
1329	0	35189	
1330	0	35169	
1331	0	35053	
1332	0	34903	
1333	0	34860	
1334	0	34981	
1335	0	35072	
1336	0	35124	
1337	0	35025	
1338	0	34985	
1339	0	34939	
1340	0	34997	
1341	0	35033	
1342	0	35004	
1343	0	34973	
1344	0	34928	
1345	0	35027	
1346	0	35131	
1347	0	35191	
1348	0	35148	
1349	0	35133	
1350	0	35225	
1351	0	35335	
1352	0	35350	
1353	0	35297	
1354	0	35187	
1355	0	35168	
1356	0	35088	
1357	0	35085	
1358	0	35127	
1359	0	35163	
1360	0	35185	
1361	0	35125	
1362	0	34990	
1363	0	34877	
1364	0	34787	
1365	0	34781	
1366	0	34793	
1367	0	34780	
1368	0	34753	
1369	0	34713	
1370	0	34684	
1371	0	34741	
1372	0	34677	
1373	0	34699	
1374	0	34564	
1375	0	34573	
1376	0	34577	
1377	0	34539	
1378	0	34644	
1379	0	34663	
1380	0	34603	
1381	0	34625	
1382	0	34525	
1383	0	34316	
1384	0	34413	
1385	0	34471	
1386	0	34601	
1387	0	34617	
1388	0	34712	
1389	0	34820	
1390	0	34789	
1391	0	34716	
1392	0	34661	
1393	0	34642	
1394	0	34551	
1395	0	34501	
1396	0	34529	
1397	0	34572	
1398	0	34624	
1399	0	34641	
1400	0	34585	
1401	0	34668	
1402	0	34643	
1403	0	34621	
1404	0	34604	
1405	0	34584	
1406	0	34625	
1407	0	34685	
1408	0	34655	
1409	0	34772	
1410	0	34800	
1411	0	34788	
1412	0	34837	
1413	0	34812	
1414	0	34757	
1415	0	34761	
1416	0	34750	
1417	0	34749	
1418	0	34760	
1419	0	34843	
1420	0	34891	
1421	0	34922	
1422	0	34973	
1423	0	34992	
1424	0	34998	
1425	0	34996	
1426	0	34973	
1427	0	35030	
1428	0	35041	
1429	0	35075	
1430	0	35124	
1431	0	35183	
1432	0	35127	
1433	0	35136	
1434	0	35220	
1435	0	35228	
1436	0	35281	
1437	0	35241	
1438	0	35306	
1439	0	35405	
1440	0	35493	
1441	0	35491	
1442	0	35529	
1443	0	35565	
1444	0	35565	
1445	0	35527	
1446	0	35484	
1447	0	35480	
1448	0	35500	
1449	0	35549	
1450	0	35551	
1451	0	35521	
1452	0	35525	
1453	0	35380	
1454	0	35187	
1455	0	35035	
1456	0	35087	
1457	0	35020	
1458	0	35070	
1459	0	35128	
1460	0	35197	
1461	0	35265	
1462	0	35268	
1463	0	35217	
1464	0	35140	
1465	0	35033	
1466	0	34917	
1467	0	34957	
1468	0	35009	
1469	0	35195	
1470	0	35183	
1471	0	35161	
1472	0	35123	
1473	0	35010	
1474	0	34853	
1475	0	34764	
1476	0	34655	
1477	0	34684	
1478	0	34668	
1479	0	34701	
1480	0	34613	
1481	0	34567	
1482	0	34564	
1483	0	34684	
1484	0	34533	
1485	0	34497	
1486	0	34317	
1487	0	34291	
1488	0	34279	
1489	0	34333	
1490	0	34324	
1491	0	34407	
1492	0	34467	
1493	0	34473	
1494	0	34548	
1495	0	34585	
1496	0	34615	
1497	0	34617	
1498	0	34596	
1499	0	34572	
1500	0	34485	
1501	0	34485	
1502	0	34551	
1503	0	34597	
1504	0	34711	
1505	0	34665	
1506	0	34631	
1507	0	34673	
1508	0	34709	
1509	0	34784	
1510	0	34790	
1511	0	34741	
1512	0	34684	
1513	0	34687	
1514	0	34725	
1515	0	34697	
1516	0	34721	
1517	0	34690	
1518	0	34724	
1519	0	34843	
1520	0	34847	
1521	0	34953	
1522	0	35084	
1523	0	35024	
1524	0	34981	
1525	0	34921	
1526	0	34884	
1527	0	34867	
1528	0	34946	
1529	0	35077	
1530	0	35069	
1531	0	35013	
1532	0	35093	
1533	0	35133	
1534	0	35220	
1535	0	35333	
1536	0	35213	
1537	0	35182	
1538	0	35185	
1539	0	35141	
1540	0	35095	
1541	0	35133	
1542	0	35285	
1543	0	35373	
1544	0	35401	
1545	0	35417	
1546	0	35380	
1547	0	35463	
1548	0	35453	
1549	0	35461	
1550	0	35540	
1551	0	35509	
1552	0	35515	
1553	0	35496	
1554	0	35476	
1555	0	35527	
1556	0	35567	
1557	0	35612	
1558	0	35633	
1559	0	35541	
1560	0	35345	
1561	0	35308	
1562	0	35168	
1563	0	35193	
1564	0	35229	
1565	0	35210	
1566	0	35246	
1567	0	35251	
1568	0	35279	
1569	0	35241	
1570	0	35238	
1571	0	35243	
1572	0	35159	
1573	0	35077	
1574	0	34968	
1575	0	34909	
1576	0	34893	
1577	0	34902	
1578	0	34897	
1579	0	34935	
1580	0	34980	
1581	0	34956	
1582	0	34856	
1583	0	34653	
1584	0	34580	
1585	0	34617	
1586	0	34687	
1587	0	34694	
1588	0	34831	
1589	0	34732	
1590	0	34732	
1591	0	34783	
1592	0	34796	
1593	0	34732	
1594	0	34680	
1595	0	34621	
1596	0	34567	
1597	0	34608	
1598	0	34663	
1599	0	34621	
1600	0	34644	
1601	0	34588	
1602	0	34471	
1603	0	34449	
1604	0	34381	
1605	0	34420	
1606	0	34375	
1607	0	34375	
1608	0	34323	
1609	0	34376	
1610	0	34421	
1611	0	34397	
1612	0	34375	
1613	0	34383	
1614	0	34323	
1615	0	34281	
1616	0	34285	
1617	0	34255	
1618	0	34276	
1619	0	34276	
1620	0	34309	
1621	0	34401	
1622	0	34441	
1623	0	34397	
1624	0	34363	
1625	0	34391	
1626	0	34349	
1627	0	34277	
1628	0	34276	
1629	0	34274	
1630	0	34247	
1631	0	34248	
1632	0	34260	
1633	0	34323	
1634	0	34432	
1635	0	34473	
1636	0	34485	
1637	0	34409	
1638	0	34425	
1639	0	34531	
1640	0	34525	
1641	0	34535	
1642	0	34507	
1643	0	34562	
1644	0	34660	
1645	0	34673	
1646	0	34769	
1647	0	34741	
1648	0	34767	
1649	0	34799	
1650	0	34769	
1651	0	34676	
1652	0	34700	
1653	0	34732	
1654	0	34732	
1655	0	34733	
1656	0	34733	
1657	0	34697	
1658	0	34721	
1659	0	34749	
1660	0	34744	
1661	0	34788	
1662	0	34829	
1663	0	35021	
1664	0	35196	
1665	0	35145	
1666	0	34985	
1667	0	34939	
1668	0	34876	
1669	0	34925	
1670	0	34853	
1671	0	34831	
1672	0	34873	
1673	0	34901	
1674	0	34925	
1675	0	34887	
1676	0	34847	
1677	0	34816	
1678	0	34804	
1679	0	34780	
1680	0	34789	
1681	0	34811	
1682	0	34789	
1683	0	34758	
1684	0	34741	
1685	0	34745	
1686	0	34743	
1687	0	34697	
1688	0	34643	
1689	0	34661	
1690	0	34727	
1691	0	34836	
1692	0	34820	
1693	0	34825	
1694	0	34777	
1695	0	34637	
1696	0	34561	
1697	0	34461	
1698	0	34364	
1699	0	34361	
1700	0	34273	
1701	0	34287	
1702	0	34439	
1703	0	34478	
1704	0	34417	
1705	0	34384	
1706	0	34321	
1707	0	34261	
1708	0	34217	
1709	0	34160	
1710	0	34224	
1711	0	34309	
1712	0	34267	
1713	0	34247	
1714	0	34287	
1715	0	34245	
1716	0	34244	
1717	0	34245	
1718	0	34147	
1719	0	34097	
1720	0	34145	
1721	0	34181	
1722	0	34176	
1723	0	34145	
1724	0	34089	
1725	0	34139	
1726	0	34169	
1727	0	34304	
1728	0	34349	
1729	0	34341	
1730	0	34271	
1731	0	34375	
1732	0	34461	
1733	0	34551	
1734	0	34458	
1735	0	34356	
1736	0	34324	
1737	0	34292	
1738	0	34265	
1739	0	34252	
1740	0	34247	
1741	0	34249	
1742	0	34311	
1743	0	34303	
1744	0	34396	
1745	0	34377	
1746	0	34411	
1747	0	34532	
1748	0	34588	
1749	0	34551	
1750	0	34616	
1751	0	34637	
1752	0	34577	
1753	0	34604	
1754	0	34631	
1755	0	34531	
1756	0	34583	
1757	0	34581	
1758	0	34603	
1759	0	34645	
1760	0	34699	
1761	0	34836	
1762	0	34917	
1763	0	34875	
1764	0	34917	
1765	0	34853	
1766	0	34789	
1767	0	34661	
1768	0	34737	
1769	0	34760	
1770	0	34848	
1771	0	34914	
1772	0	34963	
1773	0	34977	
1774	0	34961	
1775	0	34905	
1776	0	34761	
1777	0	34756	
1778	0	34711	
1779	0	34786	
1780	0	34841	
1781	0	34862	
1782	0	34894	
1783	0	34921	
1784	0	34919	
1785	0	35053	
1786	0	35092	
1787	0	35228	
1788	0	35222	
1789	0	35077	
1790	0	34917	
1791	0	34841	
1792	0	34779	
1793	0	34747	
1794	0	34788	
1795	0	34697	
1796	0	34581	
1797	0	34649	
1798	0	34735	
1799	0	34795	
1800	0	34789	
1801	0	34829	
1802	0	34845	
1803	0	34839	
1804	0	34797	
1805	0	34693	
1806	0	34695	
1807	0	34671	
1808	0	34541	
1809	0	34439	
1810	0	34404	
1811	0	34413	
1812	0	34460	
1813	0	34491	
1814	0	34409	
1815	0	34301	
1816	0	34325	
1817	0	34306	
1818	0	34196	
1819	0	34108	
1820	0	34120	
1821	0	34133	
1822	0	34112	
1823	0	34145	
1824	0	34177	
1825	0	34135	
1826	0	34143	
1827	0	34109	
1828	0	34089	
1829	0	34074	
1830	0	34061	
1831	0	34100	
1832	0	34116	
1833	0	34101	
1834	0	34147	
1835	0	34083	
1836	0	34076	
1837	0	34203	
1838	0	34212	
1839	0	34125	
1840	0	34129	
1841	0	34169	
1842	0	34115	
1843	0	34188	
1844	0	34268	
1845	0	34212	
1846	0	34196	
1847	0	34225	
1848	0	34255	
1849	0	34153	
1850	0	34152	
1851	0	34184	
1852	0	34093	
1853	0	34112	
1854	0	34126	
1855	0	34109	
1856	0	34055	
1857	0	33983	
1858	0	34016	
1859	0	34149	
1860	0	34259	
1861	0	34300	
1862	0	34387	
1863	0	34439	
1864	0	34397	
1865	0	34409	
1866	0	34407	
1867	0	34409	
1868	0	34439	
1869	0	34366	
1870	0	34344	
1871	0	34285	
1872	0	34241	
1873	0	34272	
1874	0	34363	
1875	0	34437	
1876	0	34431	
1877	0	34447	
1878	0	34525	
1879	0	34623	
1880	0	34620	
1881	0	34661	
1882	0	34662	
1883	0	34617	
1884	0	34689	
1885	0	34836	
1886	0	34861	
1887	0	34893	
1888	0	34864	
1889	0	34799	
1890	0	34760	
1891	0	34689	
1892	0	34699	
1893	0	34709	
1894	0	34653	
1895	0	34676	
1896	0	34621	
1897	0	34662	
1898	0	34641	
1899	0	34493	
1900	0	34509	
1901	0	34480	
1902	0	34445	
1903	0	34389	
1904	0	34295	
1905	0	34244	
1906	0	34252	
1907	0	34253	
1908	0	34215	
1909	0	34329	
1910	0	34284	
1911	0	34351	
1912	0	34380	
1913	0	34378	
1914	0	34392	
1915	0	34335	
1916	0	34325	
1917	0	34253	
1918	0	34229	
1919	0	34204	
1920	0	34118	
1921	0	34085	
1922	0	34036	
1923	0	33919	
1924	0	33929	
1925	0	33945	
1926	0	34068	
1927	0	34181	
1928	0	34325	
1929	0	34371	
1930	0	34321	
1931	0	34339	
1932	0	34284	
1933	0	34285	
1934	0	34337	
1935	0	34303	
1936	0	34268	
1937	0	34277	
1938	0	34319	
1939	0	34352	
1940	0	34321	
1941	0	34295	
1942	0	34381	
1943	0	34371	
1944	0	34349	
1945	0	34325	
1946	0	34281	
1947	0	34329	
1948	0	34318	
1949	0	34420	
1950	0	34529	
1951	0	34596	
1952	0	34603	
1953	0	34599	
1954	0	34645	
1955	0	34737	
1956	0	34748	
1957	0	34786	
1958	0	34804	
1959	0	34789	
1960	0	34800	
1961	0	34733	
1962	0	34625	
1963	0	34647	
1964	0	34769	
1965	0	34753	
1966	0	34812	
1967	0	34815	
1968	0	34797	
1969	0	34927	
1970	0	34975	
1971	0	34961	
1972	0	34919	
1973	0	34861	
1974	0	34867	
1975	0	34889	
1976	0	34900	
1977	0	34894	
1978	0	34753	
1979	0	34657	
1980	0	34745	
1981	0	34790	
1982	0	34719	
1983	0	34786	
1984	0	34713	
1985	0	34583	
1986	0	34492	
1987	0	34494	
1988	0	34510	
1989	0	34580	
1990	0	34591	
1991	0	34565	
1992	0	34472	
1993	0	34417	
1994	0	34343	
1995	0	34341	
1996	0	34310	
1997	0	34363	
1998	0	34337	
1999	0	34278	
2000	0	34313	
2001	0	34487	
2002	0	34589	
2003	0	34521	
2004	0	34461	
2005	0	34449	
2006	0	34468	
2007	0	34563	
2008	0	34593	
2009	0	34708	
2010	0	34697	
2011	0	34831	
2012	0	34694	
2013	0	34665	
2014	0	34592	
2015	0	34314	
2016	0	34023	
2017	0	34000	
2018	0	34041	
2019	0	33825	
2020	0	33615	
2021	0	33468	
2022	0	33307	
2023	0	33247	
2024	0	33121	
2025	0	33239	
2026	0	33241	
2027	0	33245	
2028	0	33216	
2029	0	33189	
2030	0	33125	
2031	0	33233	
2032	0	33225	
2033	0	33189	
2034	0	33111	
2035	0	32876	
2036	0	32785	
2037	0	32684	
2038	0	32613	
2039	0	32592	
2040	0	32446	
2041	0	32445	
2042	0	32445	
2043	0	32497	
2044	0	32359	
2045	0	32325	
2046	0	32300	
2047	0	32225	
2048	0	32093	
2049	0	31953	
2050	0	31957	
2051	0	31941	
2052	0	31808	
2053	0	31733	
2054	0	31705	
2055	0	31492	
2056	0	31307	
2057	0	31165	
2058	0	30889	
2059	0	30693	
2060	0	30667	
2061	0	30613	
2062	0	30617	
2063	0	30591	
2064	0	30531	
2065	0	30365	
2066	0	30217	
2067	0	30245	
2068	0	30047	
2069	0	29840	
2070	0	29694	
2071	0	29673	
2072	0	29540	
2073	0	29485	
2074	0	29432	
2075	0	29259	
2076	0	29007	
2077	0	28891	
2078	0	28792	
2079	0	28727	
2080	0	28623	
2081	0	28532	
2082	0	28361	
2083	0	28252	
2084	0	28003	
2085	0	27825	
2086	0	27640	
2087	0	27547	
2088	0	27621	
2089	0	27604	
2090	0	27543	
2091	0	27549	
2092	0	27361	
2093	0	27295	
2094	0	27336	
2095	0	27141	
2096	0	26927	
2097	0	26805	
2098	0	26781	
2099	0	26719	
2100	0	26639	
2101	0	26573	
2102	0	26430	
2103	0	26364	
2104	0	26298	
2105	0	26036	
2106	0	25930	
2107	0	25888	
2108	0	25785	
2109	0	25664	
2110	0	25632	
2111	0	25595	
2112	0	25511	
2113	0	25437	
2114	0	25284	
2115	0	25236	
2116	0	25254	
2117	0	25260	
2118	0	25123	
2119	0	24925	
2120	0	24809	
2121	0	24720	
2122	0	24612	
2123	0	24470	
2124	0	24389	
2125	0	24207	
2126	0	24083	
2127	0	24122	
2128	0	24205	
2129	0	24211	
2130	0	24248	
2131	0	24141	
2132	0	24147	
2133	0	24197	
2134	0	24171	
2135	0	24129	
2136	0	24055	
2137	0	23972	
2138	0	23981	
2139	0	23908	
2140	0	24038	
2141	0	24059	
2142	0	24036	
2143	0	23984	
2144	0	23954	
2145	0	23898	
2146	0	23924	
2147	0	23975	
2148	0	23971	
2149	0	23963	
2150	0	23986	
2151	0	24033	
2152	0	24002	
2153	0	23933	
2154	0	23903	
2155	0	23785	
2156	0	23684	
2157	0	23576	
2158	0	23403	
2159	0	23337	
2160	0	23189	
2161	0	23103	
2162	0	22954	
2163	0	22948	
2164	0	23113	
2165	0	23205	
2166	0	23149	
2167	0	23181	
2168	0	23058	
2169	0	22934	
2170	0	22804	
2171	0	22735	
2172	0	22678	
2173	0	22708	
2174	0	22753	
2175	0	22569	
2176	0	22440	
2177	0	22455	
2178	0	22305	
2179	0	22177	
2180	0	22105	
2181	0	22105	
2182	0	22081	
2183	0	22069	
2184	0	22157	
2185	0	22225	
2186	0	22293	
2187	0	22353	
2188	0	22333	
2189	0	22412	
2190	0	22431	
2191	0	22350	
2192	0	22301	
2193	0	22247	
2194	0	22148	
2195	0	22189	
2196	0	22145	
2197	0	22238	
2198	0	22196	
2199	0	22164	
2200	0	22155	
2201	0	22249	
2202	0	22352	
2203	0	22344	
2204	0	22481	
2205	0	22559	
2206	0	22561	
2207	0	22573	
2208	0	22605	
2209	0	22553	
2210	0	22647	
2211	0	22681	
2212	0	22636	
2213	0	22556	
2214	0	22464	
2215	0	22473	
2216	0	22533	
2217	0	22491	
2218	0	22436	
2219	0	22441	
2220	0	22344	
2221	0	22385	
2222	0	22436	
2223	0	22428	
2224	0	22473	
2225	0	22481	
2226	0	22596	
2227	0	22620	
2228	0	22572	
2229	0	22577	
2230	0	22503	
2231	0	22505	
2232	0	22527	
2233	0	22451	
2234	0	22490	
2235	0	22501	
2236	0	22519	
2237	0	22556	
2238	0	22681	
2239	0	22773	
2240	0	22688	
2241	0	22609	
2242	0	22603	
2243	0	22669	
2244	0	22691	
2245	0	22689	
2246	0	22732	
2247	0	22785	
2248	0	22802	
2249	0	22893	
2250	0	23009	
2251	0	23025	
2252	0	23074	
2253	0	23114	
2254	0	23191	
2255	0	23248	
2256	0	23276	
2257	0	23377	
2258	0	23373	
2259	0	23396	
2260	0	23212	
2261	0	23037	
2262	0	23037	
2263	0	22955	
2264	0	22937	
2265	0	23077	
2266	0	23058	
2267	0	22991	
2268	0	22944	
2269	0	23007	
2270	0	22961	
2271	0	22981	
2272	0	23022	
2273	0	23177	
2274	0	23216	
2275	0	23149	
2276	0	23133	
2277	0	23077	
2278	0	23225	
2279	0	23148	
2280	0	23149	
2281	0	23145	
2282	0	23084	
2283	0	23064	
2284	0	23241	
2285	0	23330	
2286	0	23319	
2287	0	23328	
2288	0	23485	
2289	0	23501	
2290	0	23405	
2291	0	23293	
2292	0	23205	
2293	0	23192	
2294	0	23175	
2295	0	23152	
2296	0	23271	
2297	0	23237	
2298	0	23180	
2299	0	23125	
2300	0	23173	
2301	0	23229	
2302	0	23235	
2303	0	23296	
2304	0	23466	
2305	0	23389	
2306	0	23341	
2307	0	23396	
2308	0	23393	
2309	0	23343	
2310	0	23237	
2311	0	23261	
2312	0	23313	
2313	0	23415	
2314	0	23457	
2315	0	23485	
2316	0	23531	
2317	0	23524	
2318	0	23431	
2319	0	23435	
2320	0	23377	
2321	0	23302	
2322	0	23260	
2323	0	23486	
2324	0	23490	
2325	0	23416	
2326	0	23522	
2327	0	23624	
2328	0	23653	
2329	0	23588	
2330	0	23500	
2331	0	23525	
2332	0	23565	
2333	0	23478	
2334	0	23343	
2335	0	23399	
2336	0	23573	
2337	0	23619	
2338	0	23636	
2339	0	23661	
2340	0	23659	
2341	0	23651	
2342	0	23672	
2343	0	23716	
2344	0	23653	
2345	0	23485	
2346	0	23313	
2347	0	23209	
2348	0	23237	
2349	0	23392	
2350	0	23437	
2351	0	23547	
2352	0	23447	
2353	0	23517	
2354	0	23425	
2355	0	23413	
2356	0	23405	
2357	0	23404	
2358	0	23333	
2359	0	23286	
2360	0	23248	
2361	0	23265	
2362	0	23439	
2363	0	23524	
2364	0	23648	
2365	0	23628	
2366	0	23692	
2367	0	23658	
2368	0	23664	
2369	0	23778	
2370	0	23821	
2371	0	23845	
2372	0	23788	
2373	0	23783	
2374	0	23824	
2375	0	23839	
2376	0	23916	
2377	0	24025	
2378	0	24004	
2379	0	24006	
2380	0	24124	
2381	0	24223	
2382	0	24281	
2383	0	24527	
2384	0	24585	
2385	0	24592	
2386	0	24481	
2387	0	24459	
2388	0	24468	
2389	0	24348	
2390	0	24029	
2391	0	23858	
2392	0	23825	
2393	0	23808	
2394	0	23783	
2395	0	23711	
2396	0	23657	
2397	0	23524	
2398	0	23401	
2399	0	23313	
2400	0	23228	
2401	0	23264	
2402	0	23290	
2403	0	23321	
2404	0	23297	
2405	0	23224	
2406	0	23133	
2407	0	23073	
2408	0	23023	
2409	0	23004	
2410	0	22959	
2411	0	22867	
2412	0	22799	
2413	0	22809	
2414	0	22764	
2415	0	22601	
2416	0	22471	
2417	0	22249	
2418	0	22166	
2419	0	22070	
2420	0	22076	
2421	0	22164	
2422	0	22278	
2423	0	22300	
2424	0	22369	
2425	0	22397	
2426	0	22452	
2427	0	22415	
2428	0	22408	
2429	0	22517	
2430	0	22683	
2431	0	22853	
2432	0	22891	
2433	0	22956	
2434	0	22981	
2435	0	22888	
2436	0	22961	
2437	0	22921	
2438	0	22935	
2439	0	22962	
2440	0	23060	
2441	0	23061	
2442	0	23083	
2443	0	23003	
2444	0	23101	
2445	0	23041	
2446	0	23065	
2447	0	23060	
2448	0	23058	
2449	0	23159	
2450	0	23325	
2451	0	23368	
2452	0	23320	
2453	0	23364	
2454	0	23402	
2455	0	23399	
2456	0	23281	
2457	0	23107	
2458	0	23140	
2459	0	23100	
2460	0	22955	
2461	0	22923	
2462	0	22860	
2463	0	22918	
2464	0	23180	
2465	0	23525	
2466	0	23783	
2467	0	24142	
2468	0	24519	
2469	0	24876	
2470	0	25024	
2471	0	25277	
2472	0	25416	
2473	0	25536	
2474	0	25648	
2475	0	25760	
2476	0	25876	
2477	0	26048	
2478	0	26068	
2479	0	26132	
2480	0	26220	
2481	0	26413	
2482	0	26631	
2483	0	26849	
2484	0	27199	
2485	0	27409	
2486	0	27548	
2487	0	27716	
2488	0	27815	
2489	0	27922	
2490	0	27955	
2491	0	28161	
2492	0	28391	
2493	0	28578	
2494	0	28635	
2495	0	28827	
2496	0	29029	
2497	0	29145	
2498	0	29257	
2499	0	29333	
2500	0	29481	
2501	0	29631	
2502	0	29815	
2503	0	30065	
2504	0	30251	
2505	0	30441	
2506	0	30648	
2507	0	30862	
2508	0	30990	
2509	0	31053	
2510	0	31224	
2511	0	31273	
2512	0	31433	
2513	0	31652	
2514	0	31914	
2515	0	32020	
2516	0	32067	
2517	0	32158	
2518	0	32221	
2519	0	32292	
2520	0	32504	
2521	0	32763	
2522	0	32929	
2523	0	33073	
2524	0	33260	
2525	0	33361	
2526	0	33434	
2527	0	33615	
2528	0	33767	
2529	0	33861	
2530	0	34045	
2531	0	34144	
2532	0	34288	
2533	0	34429	
2534	0	34529	
2535	0	34675	
2536	0	34804	
2537	0	34915	
2538	0	35122	
2539	0	35333	
2540	0	35477	
2541	0	35596	
2542	0	35740	
2543	0	35873	
2544	0	35952	
2545	0	36205	
2546	0	36485	
2547	0	36649	
2548	0	36796	
2549	0	37073	
2550	0	37197	
2551	0	37386	
2552	0	37541	
2553	0	37743	
2554	0	37864	
2555	0	37985	
2556	0	38049	
2557	0	38132	
2558	0	38297	
2559	0	38447	
2560	0	38603	
2561	0	38783	
2562	0	38893	
2563	0	39008	
2564	0	39153	
2565	0	39340	
2566	0	39533	
2567	0	39796	
2568	0	39944	
2569	0	40069	
2570	0	40237	
2571	0	40399	
2572	0	40453	
2573	0	40540	
2574	0	40651	
2575	0	40661	
2576	0	40804	
2577	0	40847	
2578	0	40925	
2579	0	41088	
2580	0	41204	
2581	0	41376	
2582	0	41505	
2583	0	41665	
2584	0	41701	
2585	0	41669	
2586	0	41760	
2587	0	41840	
2588	0	41801	
2589	0	41821	
2590	0	41981	
2591	0	42083	
2592	0	42160	
2593	0	42319	
2594	0	42367	
2595	0	42519	
2596	0	42628	
2597	0	42645	
2598	0	42708	
2599	0	42767	
2600	0	42793	
2601	0	42893	
2602	0	42946	
2603	0	42996	
2604	0	43093	
2605	0	43244	
2606	0	43303	
2607	0	43636	
2608	0	43872	
2609	0	43937	
2610	0	43983	
2611	0	43977	
2612	0	43920	
2613	0	43913	
2614	0	43881	
2615	0	43973	
2616	0	44076	
2617	0	44157	
2618	0	44297	
2619	0	44336	
2620	0	44389	
2621	0	44637	
2622	0	44840	
2623	0	44992	
2624	0	45133	
2625	0	45184	
2626	0	45215	
2627	0	45177	
2628	0	45132	
2629	0	45145	
2630	0	45239	
2631	0	45436	
2632	0	45435	
2633	0	45446	
2634	0	45556	
2635	0	45702	
2636	0	45739	
2637	0	45845	
2638	0	46065	
2639	0	46244	
2640	0	46361	
2641	0	46365	
2642	0	46269	
2643	0	46160	
2644	0	46140	
2645	0	46244	
2646	0	46471	
2647	0	46607	
2648	0	46603	
2649	0	46641	
2650	0	46575	
2651	0	46648	
2652	0	46817	
2653	0	46833	
2654	0	46825	
2655	0	46740	
2656	0	46732	
2657	0	46809	
2658	0	46917	
2659	0	46951	
2660	0	47105	
2661	0	47351	
2662	0	47447	
2663	0	47463	
2664	0	47391	
2665	0	47264	
2666	0	47287	
2667	0	47395	
2668	0	47349	
2669	0	47396	
2670	0	47407	
2671	0	47421	
2672	0	47405	
2673	0	47500	
2674	0	47564	
2675	0	47547	
2676	0	47563	
2677	0	47625	
2678	0	47684	
2679	0	47692	
2680	0	47801	
2681	0	47871	
2682	0	47805	
2683	0	47781	
2684	0	47805	
2685	0	47877	
2686	0	47932	
2687	0	48015	
2688	0	48141	
2689	0	48124	
2690	0	48208	
2691	0	48252	
2692	0	48279	
2693	0	48212	
2694	0	48228	
2695	0	48241	
2696	0	48191	
2697	0	48175	
2698	0	48145	
2699	0	48072	
2700	0	48061	
2701	0	48084	
2702	0	48113	
2703	0	48200	
2704	0	48229	
2705	0	48316	
2706	0	48343	
2707	0	48353	
2708	0	48225	
2709	0	48209	
2710	0	48321	
2711	0	48391	
2712	0	48437	
2713	0	48389	
2714	0	48361	
2715	0	48421	
2716	0	48540	
2717	0	48517	
2718	0	48521	
2719	0	48511	
2720	0	48503	
2721	0	48544	
2722	0	48597	
2723	0	48588	
2724	0	48575	
2725	0	48569	
2726	0	48601	
2727	0	48605	
2728	0	48693	
2729	0	48823	
2730	0	48929	
2731	0	48925	
2732	0	48945	
2733	0	48893	
2734	0	48937	
2735	0	48881	
2736	0	48967	
2737	0	49044	
2738	0	49201	
2739	0	49108	
2740	0	49208	
2741	0	49229	
2742	0	49221	
2743	0	49188	
2744	0	49356	
2745	0	49417	
2746	0	49568	
2747	0	49783	
2748	0	49903	
2749	0	49807	
2750	0	49788	
2751	0	49761	
2752	0	49712	
2753	0	49588	
2754	0	49567	
2755	0	49637	
2756	0	49647	
2757	0	49535	
2758	0	49457	
2759	0	49484	
2760	0	49511	
2761	0	49615	
2762	0	49720	
2763	0	49759	
2764	0	49681	
2765	0	49692	
2766	0	49671	
2767	0	49735	
2768	0	49725	
2769	0	49809	
2770	0	49801	
2771	0	49807	
2772	0	49783	
2773	0	49825	
2774	0	49741	
2775	0	49755	
2776	0	49668	
2777	0	49575	
2778	0	49565	
2779	0	49649	
2780	0	49725	
2781	0	49665	
2782	0	49617	
2783	0	49569	
2784	0	49572	
2785	0	49565	
2786	0	49573	
2787	0	49602	
2788	0	49703	
2789	0	49731	
2790	0	49585	
2791	0	49556	
2792	0	49437	
2793	0	49294	
2794	0	49289	
2795	0	49334	
2796	0	49348	
2797	0	49245	
2798	0	49106	
2799	0	48893	
2800	0	48857	
2801	0	48940	
2802	0	49031	
2803	0	49081	
2804	0	49069	
2805	0	49116	
2806	0	49087	
2807	0	49213	
2808	0	49173	
2809	0	49117	
2810	0	49140	
2811	0	49233	
2812	0	49252	
2813	0	49140	
2814	0	49095	
2815	0	49021	
2816	0	48995	
2817	0	48945	
2818	0	48929	
2819	0	48969	
2820	0	49036	
2821	0	49020	
2822	0	49052	
2823	0	49143	
2824	0	49143	
2825	0	48969	
2826	0	48997	
2827	0	49045	
2828	0	49079	
2829	0	49057	
2830	0	49121	
2831	0	49156	
2832	0	49249	
2833	0	49200	
2834	0	49144	
2835	0	49193	
2836	0	49261	
2837	0	49244	
2838	0	49143	
2839	0	49089	
2840	0	49155	
2841	0	49089	
2842	0	49061	
2843	0	48964	
2844	0	48901	
2845	0	48873	
2846	0	48953	
2847	0	48951	
2848	0	48868	
2849	0	48800	
2850	0	48673	
2851	0	48628	
2852	0	48677	
2853	0	48716	
2854	0	48887	
2855	0	48895	
2856	0	48847	
2857	0	48725	
2858	0	48595	
2859	0	48572	
2860	0	48536	
2861	0	48584	
2862	0	48573	
2863	0	48609	
2864	0	48694	
2865	0	48777	
2866	0	48744	
2867	0	48831	
2868	0	48956	
2869	0	49005	
2870	0	48884	
2871	0	48820	
2872	0	48804	
2873	0	48824	
2874	0	48853	
2875	0	48865	
2876	0	48932	
2877	0	48893	
2878	0	48865	
2879	0	48753	
2880	0	48784	
2881	0	48844	
2882	0	48884	
2883	0	48865	
2884	0	48737	
2885	0	48805	
2886	0	48664	
2887	0	48637	
2888	0	48607	
2889	0	48528	
2890	0	48488	
2891	0	48399	
2892	0	48433	
2893	0	48368	
2894	0	48389	
2895	0	48263	
2896	0	48269	
2897	0	48295	
2898	0	48423	
2899	0	48511	
2900	0	48581	
2901	0	48477	
2902	0	48188	
2903	0	48049	
2904	0	47909	
2905	0	47873	
2906	0	47808	
2907	0	47791	
2908	0	47721	
2909	0	47725	
2910	0	47653	
2911	0	47601	
2912	0	47517	
2913	0	47505	
2914	0	47473	
2915	0	47508	
2916	0	47505	
2917	0	47375	
2918	0	47352	
2919	0	47449	
2920	0	47649	
2921	0	47609	
2922	0	47460	
2923	0	47383	
2924	0	47324	
2925	0	47337	
2926	0	47324	
2927	0	47276	
2928	0	47341	
2929	0	47204	
2930	0	47111	
2931	0	46933	
2932	0	46909	
2933	0	46925	
2934	0	47021	
2935	0	47169	
2936	0	47373	
2937	0	47437	
2938	0	47553	
2939	0	47775	
2940	0	47855	
2941	0	47941	
2942	0	48023	
2943	0	48109	
2944	0	47969	
2945	0	47598	
2946	0	47145	
2947	0	46697	
2948	0	46285	
2949	0	46036	
2950	0	45965	
2951	0	45963	
2952	0	45949	
2953	0	45944	
2954	0	46004	
2955	0	45959	
2956	0	45865	
2957	0	45663	
2958	0	45424	
2959	0	45201	
2960	0	44978	
2961	0	44797	
2962	0	44633	
2963	0	44532	
2964	0	44413	
2965	0	44260	
2966	0	44129	
2967	0	44013	
2968	0	43877	
2969	0	43695	
2970	0	43583	
2971	0	43553	
2972	0	43369	
2973	0	43117	
2974	0	42960	
2975	0	42760	
2976	0	42596	
2977	0	42429	
2978	0	42291	
2979	0	42081	
2980	0	41887	
2981	0	41701	
2982	0	41643	
2983	0	41601	
2984	0	41469	
2985	0	41468	
2986	0	41265	
2987	0	41068	
2988	0	40869	
2989	0	40733	
2990	0	40585	
2991	0	40437	
2992	0	40129	
2993	0	39871	
2994	0	39645	
2995	0	39461	
2996	0	39321	
2997	0	39165	
2998	0	38908	
2999	0	38775	
3000	0	38620	
3001	0	38429	
3002	0	38239	
3003	0	38073	
3004	0	37965	
3005	0	37897	
3006	0	37805	
3007	0	37681	
3008	0	37605	
3009	0	37356	
3010	0	36960	
3011	0	36605	
3012	0	36265	
3013	0	36049	
3014	0	35876	
3015	0	35828	
3016	0	35784	
3017	0	35627	
3018	0	35505	
3019	0	35343	
3020	0	35221	
3021	0	35029	
3022	0	34969	
3023	0	34839	
3024	0	34729	
3025	0	34518	
3026	0	34387	
3027	0	34348	
3028	0	34127	
3029	0	33941	
3030	0	33821	
3031	0	33648	
3032	0	33715	
3033	0	33745	
3034	0	33569	
3035	0	33456	
3036	0	33331	
3037	0	33169	
3038	0	33133	
3039	0	33124	
3040	0	33200	
3041	0	33151	
3042	0	33041	
3043	0	32949	
3044	0	32921	
3045	0	32741	
3046	0	32530	
3047	0	32433	
3048	0	32329	
3049	0	32283	
3050	0	32289	
3051	0	32364	
3052	0	32325	
3053	0	32420	
3054	0	32520	
3055	0	32551	
3056	0	32541	
3057	0	32535	
3058	0	32356	
3059	0	32348	
3060	0	32293	
3061	0	32356	
3062	0	32425	
3063	0	32429	
3064	0	32365	
3065	0	32255	
3066	0	32344	
3067	0	32442	
3068	0	32545	
3069	0	32583	
3070	0	32544	
3071	0	32515	
3072	0	32452	
3073	0	32391	
3074	0	32307	
3075	0	32361	
3076	0	32317	
3077	0	32249	
3078	0	32230	
3079	0	32309	
3080	0	32338	
3081	0	32368	
3082	0	32412	
3083	0	32441	
3084	0	32529	
3085	0	32469	
3086	0	32501	
3087	0	32493	
3088	0	32579	
3089	0	32577	
3090	0	32413	
3091	0	32317	
3092	0	32221	
3093	0	32224	
3094	0	32209	
3095	0	32297	
3096	0	32447	
3097	0	32512	
3098	0	32485	
3099	0	32520	
3100	0	32585	
3101	0	32555	
3102	0	32496	
3103	0	32477	
3104	0	32413	
3105	0	32461	
3106	0	32471	
3107	0	32468	
3108	0	32453	
3109	0	32477	
3110	0	32476	
3111	0	32486	
3112	0	32464	
3113	0	32511	
3114	0	32617	
3115	0	32639	
3116	0	32548	
3117	0	32529	
3118	0	32584	
3119	0	32509	
3120	0	32477	
3121	0	32471	
3122	0	32485	
3123	0	32512	
3124	0	32592	
3125	0	32646	
3126	0	32593	
3127	0	32540	
3128	0	32508	
3129	0	32484	
3130	0	32471	
3131	0	32428	
3132	0	32367	
3133	0	32463	
3134	0	32544	
3135	0	32526	
3136	0	32489	
3137	0	32475	
3138	0	32540	
3139	0	32596	
3140	0	32689	
3141	0	32721	
3142	0	32713	
3143	0	32805	
3144	0	32993	
3145	0	33021	
3146	0	32945	
3147	0	32927	
3148	0	33020	
3149	0	32999	
3150	0	32970	
3151	0	32993	
3152	0	32988	
3153	0	32944	
3154	0	33019	
3155	0	32964	
3156	0	32864	
3157	0	32890	
3158	0	32967	
3159	0	32999	
3160	0	33041	
3161	0	33063	
3162	0	33000	
3163	0	32956	
3164	0	32905	
3165	0	32796	
3166	0	32729	
3167	0	32553	
3168	0	32449	
3169	0	32352	
3170	0	32377	
3171	0	32477	
3172	0	32513	
3173	0	32375	
3174	0	32296	
3175	0	32334	
3176	0	32216	
3177	0	32069	
3178	0	31997	
3179	0	31973	
3180	0	31937	
3181	0	31920	
3182	0	31860	
3183	0	31844	
3184	0	31847	
3185	0	31869	
3186	0	31872	
3187	0	31863	
3188	0	31925	
3189	0	31897	
3190	0	31963	
3191	0	31947	
3192	0	32008	
3193	0	31984	
3194	0	31949	
3195	0	31970	
3196	0	32078	
3197	0	32085	
3198	0	32049	
3199	0	32049	
3200	0	32001	
3201	0	32021	
3202	0	31997	
3203	0	32077	
3204	0	32141	
3205	0	32210	
3206	0	32285	
3207	0	32292	
3208	0	32240	
3209	0	32293	
3210	0	32345	
3211	0	32352	
3212	0	32305	
3213	0	32373	
3214	0	32303	
3215	0	32309	
3216	0	32273	
3217	0	32288	
3218	0	32293	
3219	0	32340	
3220	0	32412	
3221	0	32385	
3222	0	32393	
3223	0	32321	
3224	0	32233	
3225	0	32151	
3226	0	32185	
3227	0	32224	
3228	0	32237	
3229	0	32281	
3230	0	32276	
3231	0	32254	
3232	0	32309	
3233	0	32253	
3234	0	32354	
3235	0	32349	
3236	0	32309	
3237	0	32231	
3238	0	32207	
3239	0	32233	
3240	0	32336	
3241	0	32332	
3242	0	32357	
3243	0	32293	
3244	0	32233	
3245	0	32131	
3246	0	32148	
3247	0	32101	
3248	0	32152	
3249	0	32173	
3250	0	32169	
3251	0	32111	
3252	0	32081	
3253	0	32152	
3254	0	32252	
3255	0	32243	
3256	0	32159	
3257	0	32174	
3258	0	32231	
3259	0	32163	
3260	0	32301	
3261	0	32391	
3262	0	32393	
3263	0	32460	
3264	0	32551	
3265	0	32557	
3266	0	32521	
3267	0	32420	
3268	0	32404	
3269	0	32448	
3270	0	32438	
3271	0	32373	
3272	0	32441	
3273	0	32451	
3274	0	32485	
3275	0	32501	
3276	0	32350	
3277	0	32373	
3278	0	32412	
3279	0	32440	
3280	0	32383	
3281	0	32402	
3282	0	32337	
3283	0	32340	
3284	0	32305	
3285	0	32373	
3286	0	32351	
3287	0	32391	
3288	0	32457	
3289	0	32584	
3290	0	32528	
3291	0	32511	
3292	0	32472	
3293	0	32439	
3294	0	32425	
3295	0	32412	
3296	0	32352	
3297	0	32332	
3298	0	32269	
3299	0	32232	
3300	0	32177	
3301	0	32069	
3302	0	31991	
3303	0	31932	
3304	0	31963	
3305	0	31873	
3306	0	31925	
3307	0	31925	
3308	0	31968	
3309	0	31932	
3310	0	31935	
3311	0	31897	
3312	0	31826	
3313	0	31861	
3314	0	31981	
3315	0	32052	
3316	0	32059	
3317	0	32026	
3318	0	32008	
3319	0	31908	
3320	0	31933	
3321	0	32017	
3322	0	32132	
3323	0	32200	
3324	0	32149	
3325	0	32025	
3326	0	31947	
3327	0	31961	
3328	0	32005	
3329	0	32112	
3330	0	32177	
3331	0	32200	
3332	0	32132	
3333	0	32105	
3334	0	32193	
3335	0	32149	
3336	0	32219	
3337	0	32216	
3338	0	32156	
3339	0	32173	
3340	0	32167	
3341	0	32218	
3342	0	32256	
3343	0	32301	
3344	0	32248	
3345	0	32321	
3346	0	32253	
3347	0	32222	
3348	0	32228	
3349	0	32247	
3350	0	32241	
3351	0	32242	
3352	0	32335	
3353	0	32276	
3354	0	32255	
3355	0	32320	
3356	0	32312	
3357	0	32337	
3358	0	32287	
3359	0	32244	
3360	0	32276	
3361	0	32325	
3362	0	32434	
3363	0	32567	
3364	0	32541	
3365	0	32514	
3366	0	32461	
3367	0	32532	
3368	0	32545	
3369	0	32524	
3370	0	32485	
3371	0	32445	
3372	0	32457	
3373	0	32431	
3374	0	32468	
3375	0	32521	
3376	0	32568	
3377	0	32581	
3378	0	32481	
3379	0	32386	
3380	0	32306	
3381	0	32349	
3382	0	32359	
3383	0	32407	
3384	0	32547	
3385	0	32637	
3386	0	32653	
3387	0	32647	
3388	0	32548	
3389	0	32453	
3390	0	32388	
3391	0	32356	
3392	0	32344	
3393	0	32352	
3394	0	32291	
3395	0	32197	
3396	0	32109	
3397	0	32085	
3398	0	32064	
3399	0	32035	
3400	0	32057	
3401	0	32112	
3402	0	32056	
3403	0	32021	
3404	0	32125	
3405	0	32105	
3406	0	31993	
3407	0	32044	
3408	0	32056	
3409	0	32029	
3410	0	31993	
3411	0	31956	
3412	0	31944	
3413	0	31996	
3414	0	31985	
3415	0	31967	
3416	0	31985	
3417	0	32023	
3418	0	32116	
3419	0	32123	
3420	0	32132	
3421	0	32099	
3422	0	32089	
3423	0	32131	
3424	0	32053	
3425	0	32053	
3426	0	32152	
3427	0	32192	
3428	0	32213	
3429	0	32219	
3430	0	32190	
3431	0	32201	
3432	0	32164	
3433	0	32103	
3434	0	32009	
3435	0	31965	
3436	0	32036	
3437	0	32031	
3438	0	32116	
3439	0	32112	
3440	0	32092	
3441	0	32132	
3442	0	32203	
3443	0	32276	
3444	0	32271	
3445	0	32196	
3446	0	32265	
3447	0	32327	
3448	0	32436	
3449	0	32456	
3450	0	32421	
3451	0	32501	
3452	0	32540	
3453	0	32529	
3454	0	32549	
3455	0	32583	
3456	0	32768	
3457	0	32676	
3458	0	32705	
3459	0	32757	
3460	0	32765	
3461	0	32688	
3462	0	32669	
3463	0	32757	
3464	0	32780	
3465	0	32743	
3466	0	32619	
3467	0	32620	
3468	0	32649	
3469	0	32778	
3470	0	32902	
3471	0	32833	
3472	0	32824	
3473	0	32775	
3474	0	32831	
3475	0	32781	
3476	0	32721	
3477	0	32681	
3478	0	32657	
3479	0	32597	
3480	0	32609	
3481	0	32596	
3482	0	32533	
3483	0	32515	
3484	0	32530	
3485	0	32388	
3486	0	32364	
3487	0	32415	
3488	0	32459	
3489	0	32487	
3490	0	32397	
3491	0	32305	
3492	0	32257	
3493	0	32285	
3494	0	32303	
3495	0	32316	
3496	0	32353	
3497	0	32333	
3498	0	32363	
3499	0	32341	
3500	0	32263	
3501	0	32375	
3502	0	32475	
3503	0	32381	
3504	0	32291	
3505	0	32265	
3506	0	32123	
3507	0	32108	
3508	0	32319	
3509	0	32448	
3510	0	32383	
3511	0	32485	
3512	0	32484	
3513	0	32559	
3514	0	32448	
3515	0	32397	
3516	0	32272	
3517	0	32263	
3518	0	32247	
3519	0	32285	
3520	0	32332	
3521	0	32241	
3522	0	32323	
3523	0	32300	
3524	0	32296	
3525	0	32293	
3526	0	32281	
3527	0	32273	
3528	0	32341	
3529	0	32321	
3530	0	32321	
3531	0	32300	
3532	0	32272	
3533	0	32190	
3534	0	32213	
3535	0	32200	
3536	0	32241	
3537	0	32289	
3538	0	32285	
3539	0	32391	
3540	0	32452	
3541	0	32457	
3542	0	32540	
3543	0	32535	
3544	0	32589	
3545	0	32579	
3546	0	32623	
3547	0	32629	
3548	0	32513	
3549	0	32495	
3550	0	32493	
3551	0	32380	
3552	0	32332	
3553	0	32416	
3554	0	32441	
3555	0	32502	
3556	0	32647	
3557	0	32707	
3558	0	32645	
3559	0	32569	
3560	0	32605	
3561	0	32626	
3562	0	32674	
3563	0	32624	
3564	0	32585	
3565	0	32690	
3566	0	32714	
3567	0	32752	
3568	0	32699	
3569	0	32663	
3570	0	32613	
3571	0	32684	
3572	0	32759	
3573	0	32647	
3574	0	32600	
3575	0	32538	
3576	0	32540	
3577	0	32633	
3578	0	32601	
3579	0	32543	
3580	0	32476	
3581	0	32473	
3582	0	32445	
3583	0	32364	
3584	0	32249	
3585	0	32236	
3586	0	32277	
3587	0	32315	
3588	0	32227	
3589	0	32253	
3590	0	32292	
3591	0	32357	
3592	0	32381	
3593	0	32359	
3594	0	32268	
3595	0	32367	
3596	0	32425	
3597	0	32393	
3598	0	32360	
3599	0	32285	
3600	0	32277	
3601	0	32343	
3602	0	32444	
3603	0	32492	
3604	0	32415	
3605	0	32391	
3606	0	32256	
3607	0	32215	
3608	0	32221	
3609	0	32249	
3610	0	32293	
3611	0	32348	
3612	0	32325	
3613	0	32387	
3614	0	32431	
3615	0	32413	
3616	0	32353	
3617	0	32373	
3618	0	32401	
3619	0	32424	
3620	0	32273	
3621	0	32228	
3622	0	32151	
3623	0	32217	
3624	0	32365	
3625	0	32426	
3626	0	32663	
3627	0	32748	
3628	0	32892	
3629	0	33057	
3630	0	33117	
3631	0	33177	
3632	0	33228	
3633	0	33204	
3634	0	33183	
3635	0	33239	
3636	0	33243	
3637	0	33268	
3638	0	33281	
3639	0	33351	
3640	0	33486	
3641	0	33508	
3642	0	33393	
3643	0	33429	
3644	0	33425	
3645	0	33486	
3646	0	33509	
3647	0	33469	
3648	0	33375	
3649	0	33451	
3650	0	33487	
3651	0	33364	
3652	0	33358	
3653	0	33236	
3654	0	33162	
3655	0	33183	
3656	0	33325	
3657	0	33360	
3658	0	33340	
3659	0	33362	
3660	0	33405	
3661	0	33385	
3662	0	33345	
3663	0	33379	
3664	0	33336	
3665	0	33309	
3666	0	33383	
3667	0	33401	
3668	0	33439	
3669	0	33541	
3670	0	33567	
3671	0	33451	
3672	0	33433	
3673	0	33495	
3674	0	33455	
3675	0	33443	
3676	0	33476	
3677	0	33513	
3678	0	33392	
3679	0	33470	
3680	0	33557	
3681	0	33527	
3682	0	33449	
3683	0	33417	
3684	0	33377	
3685	0	33365	
3686	0	33385	
3687	0	33431	
3688	0	33413	
3689	0	33306	
3690	0	33180	
3691	0	33305	
3692	0	33364	
3693	0	33324	
3694	0	33312	
3695	0	33272	
3696	0	33228	
3697	0	33216	
3698	0	33112	
3699	0	33065	
3700	0	33089	
3701	0	33100	
3702	0	32929	
3703	0	32928	
3704	0	32931	
3705	0	32892	
3706	0	32965	
3707	0	33025	
3708	0	33081	
3709	0	33048	
3710	0	33085	
3711	0	33049	
3712	0	33065	
3713	0	33055	
3714	0	33075	
3715	0	33055	
3716	0	32989	
3717	0	33026	
3718	0	32975	
3719	0	32973	
3720	0	33017	
3721	0	33093	
3722	0	33108	
3723	0	33109	
3724	0	33089	
3725	0	33129	
3726	0	33165	
3727	0	33173	
3728	0	33204	
3729	0	33141	
3730	0	33060	
3731	0	33033	
3732	0	33005	
3733	0	32973	
3734	0	32980	
3735	0	32873	
3736	0	32932	
3737	0	32911	
3738	0	32949	
3739	0	32988	
3740	0	33010	
3741	0	33065	
3742	0	33048	
3743	0	33089	
3744	0	33052	
3745	0	33017	
3746	0	33077	
3747	0	33169	
3748	0	33213	
3749	0	33188	
3750	0	33216	
3751	0	33158	
3752	0	33171	
3753	0	33148	
3754	0	33165	
3755	0	33153	
3756	0	33068	
3757	0	33045	
3758	0	33105	
3759	0	33220	
3760	0	33379	
3761	0	33381	
3762	0	33381	
3763	0	33455	
3764	0	33419	
3765	0	33412	
3766	0	33429	
3767	0	33389	
3768	0	33301	
3769	0	33365	
3770	0	33476	
3771	0	33493	
3772	0	33396	
3773	0	33289	
3774	0	33345	
3775	0	33295	
3776	0	33461	
3777	0	33497	
3778	0	33367	
3779	0	33287	
3780	0	33275	
3781	0	33285	
3782	0	33333	
3783	0	33349	
3784	0	33344	
3785	0	33359	
3786	0	33311	
3787	0	33260	
3788	0	33164	
3789	0	33125	
3790	0	33157	
3791	0	33196	
3792	0	33192	
3793	0	33127	
3794	0	33001	
3795	0	32921	
3796	0	32911	
3797	0	32968	
3798	0	33016	
3799	0	33027	
3800	0	33015	
3801	0	33109	
3802	0	33063	
3803	0	33088	
3804	0	33065	
3805	0	33113	
3806	0	33108	
3807	0	33049	
3808	0	33067	
3809	0	33105	
3810	0	33132	
3811	0	33125	
3812	0	33071	
3813	0	33081	
3814	0	32969	
3815	0	32914	
3816	0	32903	
3817	0	32895	
3818	0	32941	
3819	0	32937	
3820	0	32857	
3821	0	32960	
3822	0	32953	
3823	0	32951	
3824	0	33045	
3825	0	33024	
3826	0	32864	
3827	0	32853	
3828	0	32929	
3829	0	32959	
3830	0	32959	
3831	0	32980	
3832	0	33015	
3833	0	32955	
3834	0	32913	
3835	0	32937	
3836	0	32968	
3837	0	32985	
3838	0	33081	
3839	0	33236	
3840	0	33301	
3841	0	33253	
3842	0	33293	
3843	0	33223	
3844	0	33213	
3845	0	33233	
3846	0	33337	
3847	0	33389	
3848	0	33375	
3849	0	33441	
3850	0	33477	
3851	0	33491	
3852	0	33504	
3853	0	33573	
3854	0	33580	
3855	0	33621	
3856	0	33601	
3857	0	33460	
3858	0	33450	
3859	0	33424	
3860	0	33367	
3861	0	33415	
3862	0	33396	
3863	0	33277	
3864	0	33315	
3865	0	33359	
3866	0	33471	
3867	0	33568	
3868	0	33541	
3869	0	33489	
3870	0	33459	
3871	0	33380	
3872	0	33308	
3873	0	33225	
3874	0	33265	
3875	0	33343	
3876	0	33212	
3877	0	33181	
3878	0	33092	
3879	0	33101	
3880	0	33147	
3881	0	33121	
3882	0	33197	
3883	0	33298	
3884	0	33397	
3885	0	33265	
3886	0	33157	
3887	0	33125	
3888	0	33071	
3889	0	32973	
3890	0	33000	
3891	0	33004	
3892	0	33029	
3893	0	33044	
3894	0	33081	
3895	0	32884	
3896	0	32868	
3897	0	32773	
3898	0	32701	
3899	0	32715	
3900	0	32645	
3901	0	32637	
3902	0	32537	
3903	0	32570	
3904	0	32588	
3905	0	32583	
3906	0	32573	
3907	0	32607	
3908	0	32542	
3909	0	32533	
3910	0	32548	
3911	0	32519	
3912	0	32581	
3913	0	32597	
3914	0	32589	
3915	0	32647	
3916	0	32729	
3917	0	32721	
3918	0	32789	
3919	0	32855	
3920	0	32836	
3921	0	32938	
3922	0	32932	
3923	0	32937	
3924	0	32836	
3925	0	32732	
3926	0	32691	
3927	0	32733	
3928	0	32754	
3929	0	32793	
3930	0	32807	
3931	0	32885	
3932	0	32949	
3933	0	33083	
3934	0	33125	
3935	0	33132	
3936	0	33075	
3937	0	33017	
3938	0	33008	
3939	0	33092	
3940	0	33159	
3941	0	33209	
3942	0	33175	
3943	0	33230	
3944	0	33309	
3945	0	33321	
3946	0	33293	
3947	0	33287	
3948	0	33175	
3949	0	33124	
3950	0	33130	
3951	0	33175	
3952	0	33260	
3953	0	33354	
3954	0	33356	
3955	0	33441	
3956	0	33421	
3957	0	33391	
3958	0	33419	
3959	0	33396	
3960	0	33400	
3961	0	33469	
3962	0	33509	
3963	0	33637	
3964	0	33521	
3965	0	33469	
3966	0	33447	
3967	0	33573	
3968	0	33625	
3969	0	33600	
3970	0	33620	
3971	0	33520	
3972	0	33553	
3973	0	33524	
3974	0	33609	
3975	0	33657	
3976	0	33613	
3977	0	33561	
3978	0	33453	
3979	0	33397	
3980	0	33315	
3981	0	33364	
3982	0	33361	
3983	0	33389	
3984	0	33393	
3985	0	33389	
3986	0	33335	
3987	0	33308	
3988	0	33284	
3989	0	33343	
3990	0	33311	
3991	0	33241	
3992	0	33240	
3993	0	33125	
3994	0	33095	
3995	0	32972	
3996	0	32963	
3997	0	32916	
3998	0	32905	
3999	0	33018	
4000	0	33097	
4001	0	33120	
4002	0	33212	
4003	0	33216	
4004	0	33104	
4005	0	32940	
4006	0	32721	
4007	0	32716	
4008	0	32716	
4009	0	32848	
4010	0	32886	
4011	0	32879	
4012	0	32917	
4013	0	32989	
4014	0	32993	
4015	0	33024	
4016	0	32961	
4017	0	32921	
4018	0	32939	
4019	0	32867	
4020	0	32925	
4021	0	32913	
4022	0	33029	
4023	0	33047	
4024	0	32933	
4025	0	32809	
4026	0	32693	
4027	0	32608	
4028	0	32580	
4029	0	32575	
4030	0	32741	
4031	0	32879	
4032	0	33018	
4033	0	33161	
4034	0	33297	
4035	0	33354	
4036	0	33407	
4037	0	33439	
4038	0	33433	
4039	0	33393	
4040	0	33437	
4041	0	33458	
4042	0	33649	
4043	0	33817	
4044	0	33873	
4045	0	33985	
4046	0	34123	
4047	0	34229	
4048	0	34357	
4049	0	34449	
4050	0	34505	
4051	0	34572	
4052	0	34711	
4053	0	34793	
4054	0	34887	
4055	0	34973	
4056	0	35129	
4057	0	35101	
4058	0	35225	
4059	0	35301	
4060	0	35239	
4061	0	35149	
4062	0	35101	
4063	0	35028	
4064	0	35017	
4065	0	34969	
4066	0	34962	
4067	0	34949	
4068	0	34916	
4069	0	34935	
4070	0	34945	
4071	0	34912	
4072	0	34869	
4073	0	34892	
4074	0	34837	
4075	0	34695	
4076	0	34633	
4077	0	34685	
4078	0	34748	
4079	0	34748	
4080	0	34813	
4081	0	34781	
4082	0	34740	
4083	0	34702	
4084	0	34553	
4085	0	34496	
4086	0	34541	
4087	0	34581	
4088	0	34524	
4089	0	34525	
4090	0	34444	
4091	0	34383	
4092	0	34347	
4093	0	34272	
4094	0	34245	
4095	0	34260	
4096	0	34276	
4097	0	34242	
4098	0	34272	
4099	0	34296	
4100	0	34343	
4101	0	34331	
4102	0	34327	
4103	0	34247	
4104	0	34132	
4105	0	34100	
4106	0	34156	
4107	0	34178	
4108	0	34172	
4109	0	34068	
4110	0	34092	
4111	0	34072	
4112	0	33969	
4113	0	33896	
4114	0	33928	
4115	0	34031	
4116	0	34041	
4117	0	34065	
4118	0	34013	
4119	0	34041	
4120	0	34065	
4121	0	34112	
4122	0	34197	
4123	0	34267	
4124	0	34213	
4125	0	34183	
4126	0	34143	
4127	0	34128	
4128	0	34119	
4129	0	34165	
4130	0	34165	
4131	0	34165	
4132	0	34174	
4133	0	34105	
4134	0	34047	
4135	0	34080	
4136	0	34084	
4137	0	34101	
4138	0	34080	
4139	0	34176	
4140	0	34181	
4141	0	34260	
4142	0	34356	
4143	0	34373	
4144	0	34380	
4145	0	34381	
4146	0	34493	
4147	0	34557	
4148	0	34583	
4149	0	34628	
4150	0	34621	
4151	0	34671	
4152	0	34673	
4153	0	34655	
4154	0	34639	
4155	0	34617	
4156	0	34587	
4157	0	34591	
4158	0	34602	
4159	0	34596	
4160	0	34540	
4161	0	34521	
4162	0	34592	
4163	0	34617	
4164	0	34493	
4165	0	34349	
4166	0	34258	
4167	0	34193	
4168	0	34141	
4169	0	34085	
4170	0	34079	
4171	0	34061	
4172	0	33978	
4173	0	33857	
4174	0	33769	
4175	0	33696	
4176	0	33778	
4177	0	33751	
4178	0	33725	
4179	0	33687	
4180	0	33677	
4181	0	33576	
4182	0	33668	
4183	0	33723	
4184	0	33728	
4185	0	33804	
4186	0	33856	
4187	0	33855	
4188	0	33835	
4189	0	33857	
4190	0	33836	
4191	0	33831	
4192	0	33907	
4193	0	34037	
4194	0	34175	
4195	0	34261	
4196	0	34284	
4197	0	34230	
4198	0	34137	
4199	0	34100	
4200	0	34135	
4201	0	34044	
4202	0	33983	
4203	0	34009	
4204	0	33953	
4205	0	34017	
4206	0	34004	
4207	0	33980	
4208	0	33977	
4209	0	33947	
4210	0	33914	
4211	0	33821	
4212	0	33733	
4213	0	33785	
4214	0	33893	
4215	0	33821	
4216	0	33909	
4217	0	33881	
4218	0	33887	
4219	0	33916	
4220	0	34033	
4221	0	34057	
4222	0	34013	
4223	0	34041	
4224	0	34134	
4225	0	34135	
4226	0	34117	
4227	0	34124	
4228	0	34052	
4229	0	34085	
4230	0	34069	
4231	0	33940	
4232	0	33913	
4233	0	33924	
4234	0	33964	
4235	0	34077	
4236	0	34130	
4237	0	34156	
4238	0	34092	
4239	0	34163	
4240	0	34241	
4241	0	34248	
4242	0	34242	
4243	0	34327	
4244	0	34381	
4245	0	34391	
4246	0	34461	
4247	0	34456	
4248	0	34404	
4249	0	34389	
4250	0	34318	
4251	0	34391	
4252	0	34283	
4253	0	34249	
4254	0	34299	
4255	0	34343	
4256	0	34338	
4257	0	34361	
4258	0	34349	
4259	0	34318	
4260	0	34331	
4261	0	34383	
4262	0	34403	
4263	0	34537	
4264	0	34580	
4265	0	34537	
4266	0	34668	
4267	0	34725	
4268	0	34717	
4269	0	34725	
4270	0	34690	
4271	0	34666	
4272	0	34645	
4273	0	34663	
4274	0	34671	
4275	0	34717	
4276	0	34807	
4277	0	34877	
4278	0	34901	
4279	0	34907	
4280	0	34924	
4281	0	34893	
4282	0	34867	
4283	0	34909	
4284	0	34985	
4285	0	34951	
4286	0	34809	
4287	0	34813	
4288	0	34758	
4289	0	34741	
4290	0	34713	
4291	0	34652	
4292	0	34680	
4293	0	34676	
4294	0	34717	
4295	0	34647	
4296	0	34599	
4297	0	34524	
4298	0	34487	
4299	0	34399	
4300	0	34432	
4301	0	34507	
4302	0	34621	
4303	0	34525	
4304	0	34413	
4305	0	34393	
4306	0	34426	
4307	0	34315	
4308	0	34260	
4309	0	34189	
4310	0	34116	
4311	0	34141	
4312	0	34076	
4313	0	34134	
4314	0	34230	
4315	0	34203	
4316	0	34137	
4317	0	33999	
4318	0	33829	
4319	0	33703	
4320	0	33753	
4321	0	33777	
4322	0	33840	
4323	0	33948	
4324	0	34023	
4325	0	34044	
4326	0	34028	
4327	0	33884	
4328	0	33804	
4329	0	33813	
4330	0	33789	
4331	0	33819	
4332	0	33789	
4333	0	33837	
4334	0	33861	
4335	0	33985	
4336	0	33974	
4337	0	33919	
4338	0	33905	
4339	0	33885	
4340	0	33943	
4341	0	33813	
4342	0	33749	
4343	0	33825	
4344	0	33760	
4345	0	33751	
4346	0	33891	
4347	0	33965	
4348	0	33961	
4349	0	33911	
4350	0	34020	
4351	0	34081	
4352	0	34135	
4353	0	34128	
4354	0	34113	
4355	0	34132	
4356	0	34119	
4357	0	34146	
4358	0	34217	
4359	0	34151	
4360	0	34157	
4361	0	34167	
4362	0	34129	
4363	0	34257	
4364	0	34321	
4365	0	34396	
4366	0	34405	
4367	0	34509	
4368	0	34509	
4369	0	34592	
4370	0	34465	
4371	0	34375	
4372	0	34353	
4373	0	34225	
4374	0	34249	
4375	0	34337	
4376	0	34351	
4377	0	34245	
4378	0	34285	
4379	0	34260	
4380	0	34315	
4381	0	34444	
4382	0	34471	
4383	0	34497	
4384	0	34377	
4385	0	34231	
4386	0	34349	
4387	0	34423	
4388	0	34337	
4389	0	34241	
4390	0	34151	
4391	0	34091	
4392	0	34061	
4393	0	34052	
4394	0	33959	
4395	0	33937	
4396	0	33936	
4397	0	33989	
4398	0	33951	
4399	0	34009	
4400	0	34019	
4401	0	33969	
4402	0	33855	
4403	0	33813	
4404	0	33982	
4405	0	34096	
4406	0	34184	
4407	0	34141	
4408	0	33986	
4409	0	34033	
4410	0	33995	
4411	0	33925	
4412	0	33808	
4413	0	33705	
4414	0	33684	
4415	0	33858	
4416	0	33921	
4417	0	33989	
4418	0	34027	
4419	0	34085	
4420	0	34093	
4421	0	34100	
4422	0	34049	
4423	0	34023	
4424	0	34060	
4425	0	33965	
4426	0	33957	
4427	0	33949	
4428	0	33945	
4429	0	33948	
4430	0	33953	
4431	0	33889	
4432	0	33769	
4433	0	33687	
4434	0	33791	
4435	0	33858	
4436	0	33909	
4437	0	33901	
4438	0	33899	
4439	0	33925	
4440	0	33781	
4441	0	33856	
4442	0	33746	
4443	0	33771	
4444	0	33809	
4445	0	33924	
4446	0	33941	
4447	0	33923	
4448	0	33913	
4449	0	33943	
4450	0	33969	
4451	0	33973	
4452	0	34037	
4453	0	33998	
4454	0	34037	
4455	0	34053	
4456	0	34053	
4457	0	34124	
4458	0	34136	
4459	0	34069	
4460	0	33993	
4461	0	34021	
4462	0	34060	
4463	0	34062	
4464	0	34127	
4465	0	34217	
4466	0	34223	
4467	0	34261	
4468	0	34376	
4469	0	34452	
4470	0	34405	
4471	0	34335	
4472	0	34265	
4473	0	34236	
4474	0	34277	
4475	0	34208	
4476	0	34197	
4477	0	34269	
4478	0	34309	
4479	0	34399	
4480	0	34449	
4481	0	34479	
4482	0	34471	
4483	0	34464	
4484	0	34351	
4485	0	34420	
4486	0	34431	
4487	0	34493	
4488	0	34565	
4489	0	34535	
4490	0	34613	
4491	0	34659	
4492	0	34652	
4493	0	34575	
4494	0	34569	
4495	0	34559	
4496	0	34505	
4497	0	34433	
4498	0	34476	
4499	0	34421	
4500	0	34475	
4501	0	34541	
4502	0	34459	
4503	0	34429	
4504	0	34387	
4505	0	34300	
4506	0	34221	
4507	0	34203	
4508	0	34193	
4509	0	34075	
4510	0	34100	
4511	0	34109	
4512	0	34181	
4513	0	34167	
4514	0	34135	
4515	0	34061	
4516	0	34051	
4517	0	34093	
4518	0	33985	
4519	0	33974	
4520	0	33975	
4521	0	33973	
4522	0	33888	
4523	0	33831	
4524	0	33756	
4525	0	33727	
4526	0	33697	
4527	0	33769	
4528	0	33871	
4529	0	33808	
4530	0	33710	
4531	0	33686	
4532	0	33660	
4533	0	33671	
4534	0	33671	
4535	0	33576	
4536	0	33595	
4537	0	33609	
4538	0	33587	
4539	0	33573	
4540	0	33665	
4541	0	33780	
4542	0	33860	
4543	0	33750	
4544	0	33823	
4545	0	33839	
4546	0	33827	
4547	0	33815	
4548	0	33753	
4549	0	33772	
4550	0	33827	
4551	0	33845	
4552	0	33813	
4553	0	33923	
4554	0	34061	
4555	0	34017	
4556	0	34052	
4557	0	34029	
4558	0	33927	
4559	0	33887	
4560	0	33915	
4561	0	33917	
4562	0	33840	
4563	0	33861	
4564	0	33839	
4565	0	33864	
4566	0	33872	
4567	0	33825	
4568	0	33920	
4569	0	33959	
4570	0	34083	
4571	0	34055	
4572	0	34124	
4573	0	34141	
4574	0	34036	
4575	0	33927	
4576	0	33841	
4577	0	33801	
4578	0	33887	
4579	0	33863	
4580	0	33847	
4581	0	33881	
4582	0	33989	
4583	0	34077	
4584	0	34203	
4585	0	34177	
4586	0	34165	
4587	0	34061	
4588	0	34061	
4589	0	34068	
4590	0	34128	
4591	0	34045	
4592	0	34069	
4593	0	34116	
4594	0	34151	
4595	0	34292	
4596	0	34265	
4597	0	34297	
4598	0	34220	
4599	0	34188	
4600	0	34205	
4601	0	34162	
4602	0	34075	
4603	0	34092	
4604	0	34160	
4605	0	34167	
4606	0	34264	
4607	0	34287	
4608	0	34225	
4609	0	34240	
4610	0	34253	
4611	0	34215	
4612	0	34233	
4613	0	34200	
4614	0	34220	
4615	0	34185	
4616	0	34148	
4617	0	34257	
4618	0	34277	
4619	0	34220	
4620	0	34147	
4621	0	34064	
4622	0	34025	
4623	0	34005	
4624	0	34065	
4625	0	34077	
4626	0	34099	
4627	0	34061	
4628	0	34109	
4629	0	34011	
4630	0	33927	
4631	0	33875	
4632	0	33857	
4633	0	33905	
4634	0	33933	
4635	0	34020	
4636	0	34036	
4637	0	34020	
4638	0	33991	
4639	0	33948	
4640	0	33891	
4641	0	33888	
4642	0	33845	
4643	0	33919	
4644	0	33985	
4645	0	33972	
4646	0	34053	
4647	0	34100	
4648	0	33911	
4649	0	33841	
4650	0	33781	
4651	0	33737	
4652	0	33698	
4653	0	33693	
4654	0	33673	
4655	0	33724	
4656	0	33769	
4657	0	33897	
4658	0	33983	
4659	0	34077	
4660	0	34053	
4661	0	34083	
4662	0	34037	
4663	0	34057	
4664	0	34023	
4665	0	34023	
4666	0	34030	
4667	0	34036	
4668	0	34067	
4669	0	34108	
4670	0	34103	
4671	0	34148	
4672	0	34122	
4673	0	34311	
4674	0	34369	
4675	0	34385	
4676	0	34359	
4677	0	34327	
4678	0	34334	
4679	0	34355	
4680	0	34339	
4681	0	34353	
4682	0	34451	
4683	0	34440	
4684	0	34468	
4685	0	34508	
4686	0	34412	
4687	0	34439	
4688	0	34473	
4689	0	34543	
4690	0	34537	
4691	0	34477	
4692	0	34393	
4693	0	34349	
4694	0	34277	
4695	0	34337	
4696	0	34373	
4697	0	34431	
4698	0	34380	
4699	0	34300	
4700	0	34245	
4701	0	34267	
4702	0	34242	
4703	0	34217	
4704	0	34164	
4705	0	34108	
4706	0	33957	
4707	0	33967	
4708	0	34013	
4709	0	33933	
4710	0	33965	
4711	0	33951	
4712	0	33955	
4713	0	33991	
4714	0	33981	
4715	0	33949	
4716	0	33817	
4717	0	33823	
4718	0	33740	
4719	0	33765	
4720	0	33815	
4721	0	33940	
4722	0	33977	
4723	0	33904	
4724	0	33877	
4725	0	33848	
4726	0	33887	
4727	0	33821	
4728	0	33855	
4729	0	33951	
4730	0	33984	
4731	0	33951	
4732	0	34100	
4733	0	34215	
4734	0	34238	
4735	0	34299	
4736	0	34276	
4737	0	34173	
4738	0	34125	
4739	0	34092	
4740	0	34118	
4741	0	34179	
4742	0	34256	
4743	0	34196	
4744	0	34183	
4745	0	34165	
4746	0	34140	
4747	0	34052	
4748	0	34021	
4749	0	34102	
4750	0	34111	
4751	0	33951	
4752	0	33861	
4753	0	33858	
4754	0	33892	
4755	0	33897	
4756	0	33905	
4757	0	33893	
4758	0	33984	
4759	0	33921	
4760	0	33935	
4761	0	34002	
4762	0	33981	
4763	0	34061	
4764	0	34149	
4765	0	34087	
4766	0	34083	
4767	0	33969	
4768	0	33933	
4769	0	33927	
4770	0	33976	
4771	0	34036	
4772	0	34015	
4773	0	34055	
4774	0	34047	
4775	0	34037	
4776	0	34032	
4777	0	34132	
4778	0	34168	
4779	0	34087	
4780	0	34177	
4781	0	34180	
4782	0	34209	
4783	0	34226	
4784	0	34189	
4785	0	34135	
4786	0	34083	
4787	0	34029	
4788	0	34093	
4789	0	34065	
4790	0	34073	
4791	0	34029	
4792	0	34001	
4793	0	34023	
4794	0	34071	
4795	0	34058	
4796	0	34011	
4797	0	33996	
4798	0	33832	
4799	0	33953	
4800	0	33925	
4801	0	33892	
4802	0	33909	
4803	0	33896	
4804	0	33893	
4805	0	33801	
4806	0	33895	
4807	0	33860	
4808	0	33876	
4809	0	33949	
4810	0	34056	
4811	0	34033	
4812	0	34045	
4813	0	33945	
4814	0	33773	
4815	0	33709	
4816	0	33727	
4817	0	33740	
4818	0	33712	
4819	0	33708	
4820	0	33584	
4821	0	33580	
4822	0	33601	
4823	0	33653	
4824	0	33725	
4825	0	33793	
4826	0	33857	
4827	0	33951	
4828	0	33951	
4829	0	33923	
4830	0	33919	
4831	0	33965	
4832	0	34028	
4833	0	34029	
4834	0	34105	
4835	0	34100	
4836	0	34017	
4837	0	34045	
4838	0	34033	
4839	0	34113	
4840	0	34131	
4841	0	34062	
4842	0	34081	
4843	0	34140	
4844	0	34196	
4845	0	34148	
4846	0	34157	
4847	0	34130	
4848	0	34083	
4849	0	34032	
4850	0	34052	
4851	0	34189	
4852	0	34205	
4853	0	34237	
4854	0	34209	
4855	0	34236	
4856	0	34247	
4857	0	34383	
4858	0	34543	
4859	0	34565	
4860	0	34484	
4861	0	34434	
4862	0	34383	
4863	0	34397	
4864	0	34385	
4865	0	34417	
4866	0	34397	
4867	0	34420	
4868	0	34413	
4869	0	34388	
4870	0	34485	
4871	0	34447	
4872	0	34416	
4873	0	34365	
4874	0	34292	
4875	0	34273	
4876	0	34297	
4877	0	34274	
4878	0	34289	
4879	0	34229	
4880	0	34209	
4881	0	34179	
4882	0	34261	
4883	0	34332	
4884	0	34372	
4885	0	34340	
4886	0	34304	
4887	0	34333	
4888	0	34257	
4889	0	34179	
4890	0	34100	
4891	0	34093	
4892	0	34055	
4893	0	34073	
4894	0	34028	
4895	0	33961	
4896	0	33933	
4897	0	33893	
4898	0	33871	
4899	0	33797	
4900	0	33815	
4901	0	33799	
4902	0	33749	
4903	0	33728	
4904	0	33699	
4905	0	33667	
4906	0	33727	
4907	0	33804	
4908	0	33901	
4909	0	33998	
4910	0	34025	
4911	0	34125	
4912	0	34098	
4913	0	34025	
4914	0	34086	
4915	0	34006	
4916	0	34008	
4917	0	33949	
4918	0	33860	
4919	0	33884	
4920	0	33837	
4921	0	33781	
4922	0	33721	
4923	0	33771	
4924	0	33748	
4925	0	33701	
4926	0	33693	
4927	0	33659	
4928	0	33629	
4929	0	33572	
4930	0	33535	
4931	0	33597	
4932	0	33647	
4933	0	33647	
4934	0	33671	
4935	0	33693	
4936	0	33620	
4937	0	33697	
4938	0	33845	
4939	0	33919	
4940	0	33941	
4941	0	33951	
4942	0	34017	
4943	0	34085	
4944	0	34063	
4945	0	33985	
4946	0	33875	
4947	0	33797	
4948	0	33777	
4949	0	33813	
4950	0	33857	
4951	0	33838	
4952	0	33943	
4953	0	34059	
4954	0	34021	
4955	0	34075	
4956	0	33993	
4957	0	33988	
4958	0	33933	
4959	0	33973	
4960	0	34031	
4961	0	34080	
4962	0	34127	
4963	0	34205	
4964	0	34249	
4965	0	34305	
4966	0	34321	
4967	0	34311	
4968	0	34327	
4969	0	34251	
4970	0	34184	
4971	0	34113	
4972	0	34111	
4973	0	34105	
4974	0	34151	
4975	0	34141	
4976	0	34141	
4977	0	34037	
4978	0	34060	
4979	0	34021	
4980	0	34064	
4981	0	33985	
4982	0	34066	
4983	0	34017	
4984	0	34087	
4985	0	34129	
4986	0	34145	
4987	0	34153	
4988	0	34149	
4989	0	34117	
4990	0	34076	
4991	0	34100	
4992	0	34071	
4993	0	34060	
4994	0	34025	
4995	0	33914	
4996	0	33890	
4997	0	33903	
4998	0	33935	
4999	0	33884	
5000	0	33825	
5001	0	33887	
5002	0	33858	
5003	0	33767	
5004	0	33687	
5005	0	33681	
5006	0	33712	
5007	0	33697	
5008	0	33749	
5009	0	33729	
5010	0	33719	
5011	0	33625	
5012	0	33662	
5013	0	33711	
5014	0	33736	
5015	0	33697	
5016	0	33615	
5017	0	33599	
5018	0	33593	
5019	0	33489	
5020	0	33605	
5021	0	33558	
5022	0	33725	
5023	0	33798	
5024	0	33826	
5025	0	33799	
5026	0	33687	
5027	0	33635	
5028	0	33671	
5029	0	33668	
5030	0	33676	
5031	0	33615	
5032	0	33565	
5033	0	33647	
5034	0	33685	
5035	0	33753	
5036	0	33861	
5037	0	33847	
5038	0	33857	
5039	0	33949	
5040	0	33883	
5041	0	33806	
5042	0	33754	
5043	0	33840	
5044	0	33907	
5045	0	33877	
5046	0	33865	
5047	0	33813	
5048	0	33711	
5049	0	33700	
5050	0	33726	
5051	0	33700	
5052	0	33717	
5053	0	33729	
5054	0	33801	
5055	0	33844	
5056	0	33950	
5057	0	34004	
5058	0	34009	
5059	0	34129	
5060	0	34121	
5061	0	34180	
5062	0	34096	
5063	0	34052	
5064	0	34002	
5065	0	34101	
5066	0	34131	
5067	0	34103	
5068	0	34066	
5069	0	33983	
5070	0	33973	
5071	0	34047	
5072	0	34092	
5073	0	34145	
5074	0	34108	
5075	0	34032	
5076	0	34044	
5077	0	34080	
5078	0	34060	
5079	0	34036	
5080	0	33991	
5081	0	34066	
5082	0	34061	
5083	0	34007	
5084	0	33884	
5085	0	33981	
5086	0	33988	
5087	0	33959	
5088	0	33972	
5089	0	33957	
5090	0	34059	
5091	0	34095	
5092	0	34145	
5093	0	34209	
5094	0	34173	
5095	0	34128	
5096	0	33993	
5097	0	33849	
5098	0	33737	
5099	0	33685	
5100	0	33725	
5101	0	33748	
5102	0	33846	
5103	0	33903	
5104	0	33943	
5105	0	33935	
5106	0	34021	
5107	0	34100	
5108	0	34103	
5109	0	33973	
5110	0	33837	
5111	0	33837	
5112	0	33836	
5113	0	33821	
5114	0	33747	
5115	0	33752	
5116	0	33808	
5117	0	33733	
5118	0	33746	
5119	0	33724	
5120	0	33801	
5121	0	33829	
5122	0	33873	
5123	0	33905	
5124	0	33849	
5125	0	33796	
5126	0	33725	
5127	0	33737	
5128	0	33784	
5129	0	33748	
5130	0	33725	
5131	0	33511	
5132	0	33370	
5133	0	33381	
5134	0	33369	
5135	0	33297	
5136	0	33309	
5137	0	33305	
5138	0	33365	
5139	0	33293	
5140	0	33248	
5141	0	33276	
5142	0	33260	
5143	0	33196	
5144	0	33177	
5145	0	33136	
5146	0	33217	
5147	0	33321	
5148	0	33389	
5149	0	33327	
5150	0	33472	
5151	0	33535	
5152	0	33665	
5153	0	33783	
5154	0	33955	
5155	0	34012	
5156	0	34049	
5157	0	34093	
5158	0	34121	
5159	0	34141	
5160	0	34068	
5161	0	33995	
5162	0	34021	
5163	0	34013	
5164	0	34069	
5165	0	34049	
5166	0	34133	
5167	0	34081	
5168	0	34007	
5169	0	34071	
5170	0	34079	
5171	0	34055	
5172	0	34016	
5173	0	33900	
5174	0	33842	
5175	0	33913	
5176	0	33918	
5177	0	34027	
5178	0	34045	
5179	0	33943	
5180	0	34036	
5181	0	34064	
5182	0	34183	
5183	0	34124	
5184	0	34093	
5185	0	34025	
5186	0	34092	
5187	0	33972	
5188	0	34021	
5189	0	33920	
5190	0	33973	
5191	0	34057	
5192	0	34037	
5193	0	34109	
5194	0	34064	
5195	0	34037	
5196	0	33993	
5197	0	34036	
5198	0	34109	
5199	0	33893	
5200	0	33745	
5201	0	33716	
5202	0	33720	
5203	0	33636	
5204	0	33645	
5205	0	33651	
5206	0	33709	
5207	0	33676	
5208	0	33661	
5209	0	33645	
5210	0	33620	
5211	0	33665	
5212	0	33740	
5213	0	33797	
5214	0	33729	
5215	0	33729	
5216	0	33717	
5217	0	33737	
5218	0	33661	
5219	0	33669	
5220	0	33690	
5221	0	33716	
5222	0	33773	
5223	0	33717	
5224	0	33553	
5225	0	33637	
5226	0	33735	
5227	0	33904	
5228	0	33892	
5229	0	33802	
5230	0	33681	
5231	0	33588	
5232	0	33601	
5233	0	33617	
5234	0	33783	
5235	0	33860	
5236	0	33800	
5237	0	33777	
5238	0	33721	
5239	0	33743	
5240	0	33728	
5241	0	33725	
5242	0	33653	
5243	0	33735	
5244	0	33851	
5245	0	33772	
5246	0	33644	
5247	0	33572	
5248	0	33568	
5249	0	33525	
5250	0	33621	
5251	0	33731	
5252	0	33731	
5253	0	33673	
5254	0	33692	
5255	0	33726	
5256	0	33637	
5257	0	33714	
5258	0	33813	
5259	0	33812	
5260	0	33876	
5261	0	33912	
5262	0	33901	
5263	0	33812	
5264	0	33831	
5265	0	33887	
5266	0	33971	
5267	0	33989	
5268	0	34061	
5269	0	33996	
5270	0	33997	
5271	0	33876	
5272	0	33850	
5273	0	33892	
5274	0	33949	
5275	0	33983	
5276	0	33973	
5277	0	33938	
5278	0	34009	
5279	0	34003	
5280	0	34028	
5281	0	33993	
5282	0	33975	
5283	0	33917	
5284	0	33920	
5285	0	33925	
5286	0	33893	
5287	0	33917	
5288	0	33887	
5289	0	33877	
5290	0	33983	
5291	0	34001	
5292	0	33957	
5293	0	33999	
5294	0	33997	
5295	0	33959	
5296	0	33959	
5297	0	33910	
5298	0	33916	
5299	0	33829	
5300	0	33793	
5301	0	33853	
5302	0	33857	
5303	0	33813	
5304	0	33851	
5305	0	33900	
5306	0	33881	
5307	0	33855	
5308	0	33884	
5309	0	33856	
5310	0	33857	
5311	0	33805	
5312	0	33741	
5313	0	33835	
5314	0	33817	
5315	0	33704	
5316	0	33789	
5317	0	33799	
5318	0	33728	
5319	0	33809	
5320	0	33761	
5321	0	33765	
5322	0	33716	
5323	0	33659	
5324	0	33589	
5325	0	33533	
5326	0	33525	
5327	0	33518	
5328	0	33447	
5329	0	33390	
5330	0	33391	
5331	0	33449	
5332	0	33424	
5333	0	33533	
5334	0	33549	
5335	0	33453	
5336	0	33369	
5337	0	33319	
5338	0	33280	
5339	0	33337	
5340	0	33279	
5341	0	33291	
5342	0	33339	
5343	0	33423	
5344	0	33469	
5345	0	33453	
5346	0	33405	
5347	0	33476	
5348	0	33473	
5349	0	33496	
5350	0	33485	
5351	0	33431	
5352	0	33465	
5353	0	33450	
5354	0	33495	
5355	0	33555	
5356	0	33545	
5357	0	33553	
5358	0	33555	
5359	0	33781	
5360	0	33784	
5361	0	33773	
5362	0	33767	
5363	0	33657	
5364	0	33659	
5365	0	33619	
5366	0	33553	
5367	0	33572	
5368	0	33496	
5369	0	33504	
5370	0	33552	
5371	0	33541	
5372	0	33517	
5373	0	33501	
5374	0	33513	
5375	0	33457	
5376	0	33429	
5377	0	33483	
5378	0	33496	
5379	0	33353	
5380	0	33301	
5381	0	33308	
5382	0	33324	
5383	0	33383	
5384	0	33422	
5385	0	33477	
5386	0	33519	
5387	0	33470	
5388	0	33429	
5389	0	33420	
5390	0	33428	
5391	0	33412	
5392	0	33425	
5393	0	33365	
5394	0	33293	
5395	0	33324	
5396	0	33271	
5397	0	33269	
5398	0	33237	
5399	0	33351	
5400	0	33345	
5401	0	33273	
5402	0	33205	
5403	0	33157	
5404	0	33237	
5405	0	33233	
5406	0	33300	
5407	0	33341	
5408	0	33377	
5409	0	33513	
5410	0	33600	
5411	0	33380	
5412	0	33369	
5413	0	33395	
5414	0	33437	
5415	0	33385	
5416	0	33467	
5417	0	33400	
5418	0	33463	
5419	0	33525	
5420	0	33615	
5421	0	33769	
5422	0	33759	
5423	0	33658	
5424	0	33631	
5425	0	33652	
5426	0	33689	
5427	0	33800	
5428	0	33799	
5429	0	33871	
5430	0	33847	
5431	0	33711	
5432	0	33703	
5433	0	33617	
5434	0	33565	
5435	0	33557	
5436	0	33556	
5437	0	33671	
5438	0	33765	
5439	0	33876	
5440	0	33906	
5441	0	33951	
5442	0	33982	
5443	0	33953	
5444	0	33944	
5445	0	33911	
5446	0	33889	
5447	0	33823	
5448	0	33765	
5449	0	33750	
5450	0	33703	
5451	0	33765	
5452	0	33769	
5453	0	33793	
5454	0	33769	
5455	0	33773	
5456	0	33862	
5457	0	33863	
5458	0	33821	
5459	0	33746	
5460	0	33739	
5461	0	33731	
5462	0	33799	
5463	0	33820	
5464	0	33751	
5465	0	33803	
5466	0	33829	
5467	0	33825	
5468	0	33769	
5469	0	33731	
5470	0	33725	
5471	0	33744	
5472	0	33775	
5473	0	33805	
5474	0	33921	
5475	0	33921	
5476	0	33916	
5477	0	33893	
5478	0	33721	
5479	0	33671	
5480	0	33677	
5481	0	33579	
5482	0	33585	
5483	0	33555	
5484	0	33428	
5485	0	33447	
5486	0	33569	
5487	0	33566	
5488	0	33537	
5489	0	33629	
5490	0	33760	
5491	0	33728	
5492	0	33857	
5493	0	33913	
5494	0	33853	
5495	0	33799	
5496	0	33692	
5497	0	33633	
5498	0	33624	
5499	0	33567	
5500	0	33660	
5501	0	33681	
5502	0	33625	
5503	0	33669	
5504	0	33700	
5505	0	33663	
5506	0	33550	
5507	0	33647	
5508	0	33613	
5509	0	33615	
5510	0	33701	
5511	0	33641	
5512	0	33533	
5513	0	33497	
5514	0	33525	
5515	0	33505	
5516	0	33484	
5517	0	33581	
5518	0	33604	
5519	0	33600	
5520	0	33735	
5521	0	33850	
5522	0	33825	
5523	0	33849	
5524	0	33825	
5525	0	33821	
5526	0	33833	
5527	0	33868	
5528	0	33905	
5529	0	33909	
5530	0	33913	
5531	0	33909	
5532	0	33885	
5533	0	34005	
5534	0	33999	
5535	0	34065	
5536	0	34011	
5537	0	34059	
5538	0	34045	
5539	0	33935	
5540	0	33893	
5541	0	33957	
5542	0	33938	
5543	0	33857	
5544	0	33889	
5545	0	33907	
5546	0	33869	
5547	0	33739	
5548	0	33706	
5549	0	33775	
5550	0	33775	
5551	0	33741	
5552	0	33774	
5553	0	33785	
5554	0	33820	
5555	0	33862	
5556	0	33893	
5557	0	33887	
5558	0	33877	
5559	0	33820	
5560	0	33849	
5561	0	33804	
5562	0	33868	
5563	0	33877	
5564	0	33801	
5565	0	33784	
5566	0	33573	
5567	0	33584	
5568	0	33553	
5569	0	33529	
5570	0	33508	
5571	0	33537	
5572	0	33525	
5573	0	33482	
5574	0	33635	
5575	0	33645	
5576	0	33773	
5577	0	33789	
5578	0	33735	
5579	0	33761	
5580	0	33769	
5581	0	33749	
5582	0	33789	
5583	0	33799	
5584	0	33791	
5585	0	33748	
5586	0	33781	
5587	0	33789	
5588	0	33775	
5589	0	33732	
5590	0	33721	
5591	0	33854	
5592	0	33813	
5593	0	33721	
5594	0	33656	
5595	0	33541	
5596	0	33555	
5597	0	33509	
5598	0	33584	
5599	0	33633	
5600	0	33761	
5601	0	33856	
5602	0	33869	
5603	0	33826	
5604	0	33769	
5605	0	33671	
5606	0	33624	
5607	0	33644	
5608	0	33645	
5609	0	33697	
5610	0	33677	
5611	0	33633	
5612	0	33593	
5613	0	33529	
5614	0	33497	
5615	0	33497	
5616	0	33592	
5617	0	33639	
5618	0	33644	
5619	0	33601	
5620	0	33609	
5621	0	33537	
5622	0	33477	
5623	0	33452	
5624	0	33471	
5625	0	33543	
5626	0	33661	
5627	0	33612	
5628	0	33623	
5629	0	33676	
5630	0	33600	
5631	0	33654	
5632	0	33687	
5633	0	33635	
5634	0	33565	
5635	0	33557	
5636	0	33542	
5637	0	33509	
5638	0	33539	
5639	0	33497	
5640	0	33500	
5641	0	33396	
5642	0	33441	
5643	0	33348	
5644	0	33448	
5645	0	33525	
5646	0	33608	
5647	0	33663	
5648	0	33727	
5649	0	33753	
5650	0	33697	
5651	0	33717	
5652	0	33777	
5653	0	33713	
5654	0	33709	
5655	0	33572	
5656	0	33601	
5657	0	33568	
5658	0	33620	
5659	0	33546	
5660	0	33552	
5661	0	33473	
5662	0	33481	
5663	0	33421	
5664	0	33444	
5665	0	33568	
5666	0	33569	
5667	0	33516	
5668	0	33505	
5669	0	33532	
5670	0	33594	
5671	0	33597	
5672	0	33529	
5673	0	33440	
5674	0	33565	
5675	0	33601	
5676	0	33615	
5677	0	33557	
5678	0	33636	
5679	0	33640	
5680	0	33647	
5681	0	33582	
5682	0	33563	
5683	0	33477	
5684	0	33529	
5685	0	33521	
5686	0	33481	
5687	0	33452	
5688	0	33477	
5689	0	33586	
5690	0	33602	
5691	0	33692	
5692	0	33711	
5693	0	33821	
5694	0	33775	
5695	0	33716	
5696	0	33644	
5697	0	33620	
5698	0	33589	
5699	0	33476	
5700	0	33497	
5701	0	33463	
5702	0	33489	
5703	0	33540	
5704	0	33596	
5705	0	33580	
5706	0	33568	
5707	0	33629	
5708	0	33624	
5709	0	33536	
5710	0	33500	
5711	0	33527	
5712	0	33513	
5713	0	33549	
5714	0	33632	
5715	0	33644	
5716	0	33716	
5717	0	33716	
5718	0	33671	
5719	0	33624	
5720	0	33577	
5721	0	33652	
5722	0	33729	
5723	0	33823	
5724	0	33867	
5725	0	33783	
5726	0	33687	
5727	0	33757	
5728	0	33736	
5729	0	33645	
5730	0	33549	
5731	0	33577	
5732	0	33517	
5733	0	33485	
5734	0	33409	
5735	0	33419	
5736	0	33481	
5737	0	33481	
5738	0	33410	
5739	0	33335	
5740	0	33253	
5741	0	33247	
5742	0	33304	
5743	0	33345	
5744	0	33457	
5745	0	33363	
5746	0	33337	
5747	0	33315	
5748	0	33352	
5749	0	33377	
5750	0	33401	
5751	0	33452	
5752	0	33505	
5753	0	33517	
5754	0	33583	
5755	0	33616	
5756	0	33566	
5757	0	33599	
5758	0	33557	
5759	0	33509	
5760	0	33473	
5761	0	33521	
5762	0	33497	
5763	0	33602	
5764	0	33748	
5765	0	33696	
5766	0	33633	
5767	0	33535	
5768	0	33553	
5769	0	33492	
5770	0	33492	
5771	0	33487	
5772	0	33453	
5773	0	33328	
5774	0	33357	
5775	0	33435	
5776	0	33477	
5777	0	33517	
5778	0	33452	
5779	0	33334	
5780	0	33341	
5781	0	33400	
5782	0	33453	
5783	0	33486	
5784	0	33433	
5785	0	33343	
5786	0	33264	
5787	0	33277	
5788	0	33343	
5789	0	33288	
5790	0	33285	
5791	0	33284	
5792	0	33233	
5793	0	33216	
5794	0	33197	
5795	0	33169	
5796	0	33276	
5797	0	33297	
5798	0	33281	
5799	0	33249	
5800	0	33292	
5801	0	33288	
5802	0	33325	
5803	0	33353	
5804	0	33409	
5805	0	33447	
5806	0	33421	
5807	0	33389	
5808	0	33453	
5809	0	33451	
5810	0	33605	
5811	0	33641	
5812	0	33549	
5813	0	33401	
5814	0	33351	
5815	0	33349	
5816	0	33325	
5817	0	33280	
5818	0	33189	
5819	0	33169	
5820	0	33257	
5821	0	33308	
5822	0	33351	
5823	0	33361	
5824	0	33381	
5825	0	33421	
5826	0	33421	
5827	0	33371	
5828	0	33336	
5829	0	33362	
5830	0	33482	
5831	0	33397	
5832	0	33452	
5833	0	33411	
5834	0	33421	
5835	0	33427	
5836	0	33505	
5837	0	33552	
5838	0	33527	
5839	0	33460	
5840	0	33461	
5841	0	33427	
5842	0	33468	
5843	0	33567	
5844	0	33596	
5845	0	33583	
5846	0	33493	
5847	0	33357	
5848	0	33425	
5849	0	33548	
5850	0	33517	
5851	0	33556	
5852	0	33501	
5853	0	33429	
5854	0	33436	
5855	0	33420	
5856	0	33501	
5857	0	33516	
5858	0	33468	
5859	0	33545	
5860	0	33560	
5861	0	33630	
5862	0	33672	
5863	0	33752	
5864	0	33776	
5865	0	33812	
5866	0	33683	
5867	0	33613	
5868	0	33524	
5869	0	33455	
5870	0	33346	
5871	0	33271	
5872	0	33349	
5873	0	33493	
5874	0	33556	
5875	0	33715	
5876	0	33828	
5877	0	33837	
5878	0	33652	
5879	0	33637	
5880	0	33584	
5881	0	33535	
5882	0	33541	
5883	0	33509	
5884	0	33473	
5885	0	33523	
5886	0	33592	
5887	0	33708	
5888	0	33660	
5889	0	33604	
5890	0	33637	
5891	0	33689	
5892	0	33685	
5893	0	33627	
5894	0	33616	
5895	0	33617	
5896	0	33665	
5897	0	33732	
5898	0	33775	
5899	0	33771	
5900	0	33724	
5901	0	33727	
5902	0	33753	
5903	0	33757	
5904	0	33780	
5905	0	33780	
5906	0	33755	
5907	0	33875	
5908	0	33749	
5909	0	33619	
5910	0	33620	
5911	0	33609	
5912	0	33568	
5913	0	33572	
5914	0	33647	
5915	0	33609	
5916	0	33685	
5917	0	33541	
5918	0	33447	
5919	0	33417	
5920	0	33388	
5921	0	33357	
5922	0	33304	
5923	0	33357	
5924	0	33348	
5925	0	33365	
5926	0	33389	
5927	0	33407	
5928	0	33519	
5929	0	33425	
5930	0	33313	
5931	0	33304	
5932	0	33292	
5933	0	33249	
5934	0	33285	
5935	0	33246	
5936	0	33196	
5937	0	33157	
5938	0	33183	
5939	0	33213	
5940	0	33180	
5941	0	33135	
5942	0	33096	
5943	0	33109	
5944	0	33227	
5945	0	33325	
5946	0	33336	
5947	0	33399	
5948	0	33415	
5949	0	33513	
5950	0	33405	
5951	0	33316	
5952	0	33308	
5953	0	33317	
5954	0	33367	
5955	0	33497	
5956	0	33573	
5957	0	33641	
5958	0	33600	
5959	0	33637	
5960	0	33668	
5961	0	33695	
5962	0	33613	
5963	0	33636	
5964	0	33649	
5965	0	33551	
5966	0	33516	
5967	0	33421	
5968	0	33321	
5969	0	33201	
5970	0	33152	
5971	0	33081	
5972	0	33141	
5973	0	33173	
5974	0	33154	
5975	0	33199	
5976	0	33136	
5977	0	33215	
5978	0	33144	
5979	0	33065	
5980	0	33060	
5981	0	33018	
5982	0	33077	
5983	0	33205	
5984	0	33264	
5985	0	33299	
5986	0	33369	
5987	0	33431	
5988	0	33465	
5989	0	33445	
5990	0	33417	
5991	0	33408	
5992	0	33465	
5993	0	33393	
5994	0	33388	
5995	0	33305	
5996	0	33309	
5997	0	33423	
5998	0	33525	
5999	0	33441	
6000	0	33465	
6001	0	33473	
6002	0	33532	
6003	0	33465	
6004	0	33431	
6005	0	33414	
6006	0	33361	
6007	0	33405	
6008	0	33369	
6009	0	33404	
6010	0	33385	
6011	0	33319	
6012	0	33342	
6013	0	33352	
6014	0	33303	
6015	0	33240	
6016	0	33209	
6017	0	33257	
6018	0	33321	
6019	0	33372	
6020	0	33303	
6021	0	33369	
6022	0	33517	
6023	0	33557	
6024	0	33653	
6025	0	33713	
6026	0	33776	
6027	0	33765	
6028	0	33764	
6029	0	33705	
6030	0	33644	
6031	0	33605	
6032	0	33717	
6033	0	33757	
6034	0	33788	
6035	0	33733	
6036	0	33645	
6037	0	33625	
6038	0	33615	
6039	0	33655	
6040	0	33718	
6041	0	33692	
6042	0	33781	
6043	0	33728	
6044	0	33763	
6045	0	33825	
6046	0	33769	
6047	0	33759	
6048	0	33682	
6049	0	33649	
6050	0	33625	
6051	0	33544	
6052	0	33535	
6053	0	33519	
6054	0	33481	
6055	0	33433	
6056	0	33479	
6057	0	33343	
6058	0	33433	
6059	0	33396	
6060	0	33365	
6061	0	33334	
6062	0	33387	
6063	0	33441	
6064	0	33509	
6065	0	33549	
6066	0	33541	
6067	0	33584	
6068	0	33518	
6069	0	33428	
6070	0	33473	
6071	0	33516	
6072	0	33666	
6073	0	33657	
6074	0	33563	
6075	0	33569	
6076	0	33503	
6077	0	33484	
6078	0	33453	
6079	0	33533	
6080	0	33564	
6081	0	33552	
6082	0	33596	
6083	0	33585	
6084	0	33375	
6085	0	33205	
6086	0	33105	
6087	0	33144	
6088	0	33149	
6089	0	33156	
6090	0	33087	
6091	0	33057	
6092	0	33028	
6093	0	33007	
6094	0	33021	
6095	0	33079	
6096	0	33084	
6097	0	33119	
6098	0	33057	
6099	0	33013	
6100	0	33029	
6101	0	33077	
6102	0	33144	
6103	0	32965	
6104	0	32827	
6105	0	32712	
6106	0	32685	
6107	0	32757	
6108	0	32879	
6109	0	32929	
6110	0	32999	
6111	0	32939	
6112	0	32999	
6113	0	33013	
6114	0	33042	
6115	0	33061	
6116	0	33053	
6117	0	33104	
6118	0	33196	
6119	0	33289	
6120	0	33331	
6121	0	33248	
6122	0	33252	
6123	0	33331	
6124	0	33364	
6125	0	33359	
6126	0	33389	
6127	0	33433	
6128	0	33521	
6129	0	33705	
6130	0	33845	
6131	0	33922	
6132	0	33925	
6133	0	33881	
6134	0	33857	
6135	0	33781	
6136	0	33751	
6137	0	33631	
6138	0	33549	
6139	0	33575	
6140	0	33624	
6141	0	33644	
6142	0	33752	
6143	0	33813	
6144	0	33769	
6145	0	33671	
6146	0	33599	
6147	0	33655	
6148	0	33561	
6149	0	33495	
6150	0	33489	
6151	0	33395	
6152	0	33293	
6153	0	33324	
6154	0	33333	
6155	0	33521	
6156	0	33481	
6157	0	33518	
6158	0	33441	
6159	0	33361	
6160	0	33339	
6161	0	33388	
6162	0	33421	
6163	0	33481	
6164	0	33517	
6165	0	33406	
6166	0	33436	
6167	0	33415	
6168	0	33340	
6169	0	33281	
6170	0	33239	
6171	0	33279	
6172	0	33263	
6173	0	33273	
6174	0	33309	
6175	0	33227	
6176	0	33285	
6177	0	33245	
6178	0	33228	
6179	0	33285	
6180	0	33247	
6181	0	33292	
6182	0	33284	
6183	0	33156	
6184	0	33154	
6185	0	33153	
6186	0	33104	
6187	0	33108	
6188	0	33191	
6189	0	33248	
6190	0	33239	
6191	0	33146	
6192	0	33056	
6193	0	33051	
6194	0	33039	
6195	0	33000	
6196	0	33009	
6197	0	33036	
6198	0	33057	
6199	0	33153	
6200	0	33160	
6201	0	33212	
6202	0	33213	
6203	0	33084	
6204	0	33100	
6205	0	33063	
6206	0	33092	
6207	0	33112	
6208	0	33200	
6209	0	33239	
6210	0	33273	
6211	0	33321	
6212	0	33353	
6213	0	33268	
6214	0	33116	
6215	0	33227	
6216	0	33237	
6217	0	33185	
6218	0	33133	
6219	0	33188	
6220	0	33193	
6221	0	33260	
6222	0	33240	
6223	0	33233	
6224	0	33251	
6225	0	33238	
6226	0	33224	
6227	0	33215	
6228	0	33159	
6229	0	33193	
6230	0	33390	
6231	0	33485	
6232	0	33377	
6233	0	33200	
6234	0	33263	
6235	0	33368	
6236	0	33359	
6237	0	33313	
6238	0	33428	
6239	0	33463	
6240	0	33435	
6241	0	33338	
6242	0	33364	
6243	0	33244	
6244	0	33166	
6245	0	33014	
6246	0	32978	
6247	0	32993	
6248	0	33113	
6249	0	33092	
6250	0	33158	
6251	0	33184	
6252	0	33191	
6253	0	33249	
6254	0	33317	
6255	0	33413	
6256	0	33513	
6257	0	33540	
6258	0	33587	
6259	0	33628	
6260	0	33715	
6261	0	33985	
6262	0	34093	
6263	0	34167	
6264	0	34065	
6265	0	33919	
6266	0	33689	
6267	0	33385	
6268	0	33201	
6269	0	33057	
6270	0	32885	
6271	0	32769	
6272	0	32621	
6273	0	32585	
6274	0	32588	
6275	0	32777	
6276	0	32868	
6277	0	32805	
6278	0	32775	
6279	0	32699	
6280	0	32657	
6281	0	32618	
6282	0	32612	
6283	0	32651	
6284	0	32450	
6285	0	32263	
6286	0	32027	
6287	0	31809	
6288	0	31657	
6289	0	31533	
6290	0	31373	
6291	0	31412	
6292	0	31295	
6293	0	31161	
6294	0	31013	
6295	0	30972	
6296	0	30885	
6297	0	30663	
6298	0	30414	
6299	0	30317	
6300	0	30306	
6301	0	30171	
6302	0	30109	
6303	0	29964	
6304	0	29828	
6305	0	29827	
6306	0	29609	
6307	0	29490	
6308	0	29413	
6309	0	29197	
6310	0	29087	
6311	0	28860	
6312	0	28606	
6313	0	28452	
6314	0	28289	
6315	0	28193	
6316	0	28201	
6317	0	28193	
6318	0	28057	
6319	0	27941	
6320	0	27812	
6321	0	27658	
6322	0	27561	
6323	0	27476	
6324	0	27520	
6325	0	27404	
6326	0	27248	
6327	0	27063	
6328	0	26972	
6329	0	26817	
6330	0	26629	
6331	0	26523	
6332	0	26430	
6333	0	26407	
6334	0	26421	
6335	0	26317	
6336	0	26196	
6337	0	25933	
6338	0	25813	
6339	0	25773	
6340	0	25681	
6341	0	25409	
6342	0	25183	
6343	0	25091	
6344	0	24972	
6345	0	24964	
6346	0	24893	
6347	0	24816	
6348	0	24828	
6349	0	24709	
6350	0	24634	
6351	0	24502	
6352	0	24356	
6353	0	24194	
6354	0	24205	
6355	0	24238	
6356	0	24160	
6357	0	24008	
6358	0	23856	
6359	0	23777	
6360	0	23516	
6361	0	23369	
6362	0	23426	
6363	0	23471	
6364	0	23385	
6365	0	23285	
6366	0	23212	
6367	0	23178	
6368	0	23128	
6369	0	23032	
6370	0	22911	
6371	0	22788	
6372	0	22766	
6373	0	22621	
6374	0	22561	
6375	0	22517	
6376	0	22388	
6377	0	22334	
6378	0	22315	
6379	0	22384	
6380	0	22362	
6381	0	22289	
6382	0	22271	
6383	0	22117	
6384	0	22014	
6385	0	21932	
6386	0	22029	
6387	0	22020	
6388	0	22045	
6389	0	22005	
6390	0	21972	
6391	0	21796	
6392	0	21565	
6393	0	21543	
6394	0	21449	
6395	0	21529	
6396	0	21413	
6397	0	21276	
6398	0	21214	
6399	0	21150	
6400	0	21212	
6401	0	21276	
6402	0	21185	
6403	0	21206	
6404	0	21204	
6405	0	21275	
6406	0	21181	
6407	0	21021	
6408	0	20880	
6409	0	20732	
6410	0	20696	
6411	0	20719	
6412	0	20689	
6413	0	20699	
6414	0	20699	
6415	0	20624	
6416	0	20512	
6417	0	20419	
6418	0	20336	
6419	0	20271	
6420	0	20291	
6421	0	20237	
6422	0	20224	
6423	0	20282	
6424	0	20400	
6425	0	20282	
6426	0	20204	
6427	0	20247	
6428	0	20218	
6429	0	20219	
6430	0	20203	
6431	0	20137	
6432	0	20003	
6433	0	19983	
6434	0	20069	
6435	0	20060	
6436	0	20068	
6437	0	20125	
6438	0	20178	
6439	0	20274	
6440	0	20320	
6441	0	20351	
6442	0	20211	
6443	0	20095	
6444	0	20104	
6445	0	20112	
6446	0	20190	
6447	0	20225	
6448	0	20177	
6449	0	20012	
6450	0	19922	
6451	0	19948	
6452	0	19956	
6453	0	19846	
6454	0	19808	
6455	0	19788	
6456	0	19645	
6457	0	19572	
6458	0	19683	
6459	0	19772	
6460	0	19915	
6461	0	19886	
6462	0	19717	
6463	0	19673	
6464	0	19651	
6465	0	19732	
6466	0	19779	
6467	0	19750	
6468	0	19697	
6469	0	19661	
6470	0	19493	
6471	0	19420	
6472	0	19373	
6473	0	19395	
6474	0	19409	
6475	0	19399	
6476	0	19424	
6477	0	19341	
6478	0	19322	
6479	0	19297	
6480	0	19273	
6481	0	19193	
6482	0	19202	
6483	0	19190	
6484	0	19130	
6485	0	19111	
6486	0	19231	
6487	0	19344	
6488	0	19467	
6489	0	19493	
6490	0	19465	
6491	0	19512	
6492	0	19573	
6493	0	19500	
6494	0	19406	
6495	0	19373	
6496	0	19289	
6497	0	19303	
6498	0	19473	
6499	0	19565	
6500	0	19658	
6501	0	19606	
6502	0	19591	
6503	0	19541	
6504	0	19451	
6505	0	19207	
6506	0	18961	
6507	0	18928	
6508	0	18986	
6509	0	19091	
6510	0	19134	
6511	0	19107	
6512	0	19141	
6513	0	19092	
6514	0	19138	
6515	0	19207	
6516	0	19350	
6517	0	19372	
6518	0	19359	
6519	0	19326	
6520	0	19295	
6521	0	19341	
6522	0	19409	
6523	0	19473	
6524	0	19420	
6525	0	19442	
6526	0	19511	
6527	0	19575	
6528	0	19585	
6529	0	19620	
6530	0	19600	
6531	0	19583	
6532	0	19646	
6533	0	19650	
6534	0	19735	
6535	0	19790	
6536	0	19861	
6537	0	19877	
6538	0	19852	
6539	0	19813	
6540	0	19792	
6541	0	19825	
6542	0	19890	
6543	0	19960	
6544	0	19916	
6545	0	20018	
6546	0	20064	
6547	0	20123	
6548	0	20191	
6549	0	20225	
6550	0	20192	
6551	0	20234	
6552	0	20179	
6553	0	20195	
6554	0	20075	
6555	0	20020	
6556	0	19996	
6557	0	20247	
6558	0	20429	
6559	0	20468	
6560	0	20459	
6561	0	20390	
6562	0	20342	
6563	0	20389	
6564	0	20401	
6565	0	20365	
6566	0	20381	
6567	0	20420	
6568	0	20341	
6569	0	20275	
6570	0	20217	
6571	0	20196	
6572	0	20199	
6573	0	20165	
6574	0	20188	
6575	0	20167	
6576	0	20348	
6577	0	20486	
6578	0	20527	
6579	0	20483	
6580	0	20397	
6581	0	20285	
6582	0	20163	
6583	0	20132	
6584	0	20181	
6585	0	20235	
6586	0	20283	
6587	0	20403	
6588	0	20429	
6589	0	20493	
6590	0	20625	
6591	0	20581	
6592	0	20498	
6593	0	20466	
6594	0	20497	
6595	0	20492	
6596	0	20436	
6597	0	20503	
6598	0	20579	
6599	0	20577	
6600	0	20597	
6601	0	20543	
6602	0	20533	
6603	0	20649	
6604	0	20708	
6605	0	20776	
6606	0	20812	
6607	0	20818	
6608	0	20847	
6609	0	20903	
6610	0	20933	
6611	0	20991	
6612	0	20989	
6613	0	20921	
6614	0	20898	
6615	0	20912	
6616	0	20988	
6617	0	20896	
6618	0	20876	
6619	0	20926	
6620	0	20991	
6621	0	21101	
6622	0	21183	
6623	0	21219	
6624	0	21161	
6625	0	20993	
6626	0	20783	
6627	0	20563	
6628	0	20361	
6629	0	20228	
6630	0	20068	
6631	0	19989	
6632	0	20098	
6633	0	20388	
6634	0	20833	
6635	0	21349	
6636	0	21827	
6637	0	22197	
6638	0	22369	
6639	0	22416	
6640	0	22353	
6641	0	22347	
6642	0	22249	
6643	0	22321	
6644	0	22322	
6645	0	22288	
6646	0	22348	
6647	0	22480	
6648	0	22723	
6649	0	23004	
6650	0	23143	
6651	0	23353	
6652	0	23613	
6653	0	23826	
6654	0	24045	
6655	0	24157	
6656	0	24225	
6657	0	24437	
6658	0	24561	
6659	0	24683	
6660	0	24824	
6661	0	24933	
6662	0	25023	
6663	0	25107	
6664	0	25192	
6665	0	25413	
6666	0	25655	
6667	0	25825	
6668	0	26148	
6669	0	26324	
6670	0	26550	
6671	0	26781	
6672	0	26973	
6673	0	27121	
6674	0	27304	
6675	0	27441	
6676	0	27661	
6677	0	27724	
6678	0	27813	
6679	0	27963	
6680	0	28135	
6681	0	28277	
6682	0	28463	
6683	0	28609	
6684	0	28852	
6685	0	29017	
6686	0	29249	
6687	0	29479	
6688	0	29655	
6689	0	29822	
6690	0	29965	
6691	0	30204	
6692	0	30426	
6693	0	30569	
6694	0	30712	
6695	0	30833	
6696	0	31073	
6697	0	31243	
6698	0	31357	
6699	0	31541	
6700	0	31713	
6701	0	32012	
6702	0	32180	
6703	0	32372	
6704	0	32597	
6705	0	32660	
6706	0	32781	
6707	0	32959	
6708	0	33085	
6709	0	33178	
6710	0	33273	
6711	0	33425	
6712	0	33641	
6713	0	33865	
6714	0	34025	
6715	0	34228	
6716	0	34428	
6717	0	34545	
6718	0	34601	
6719	0	34797	
6720	0	34921	
6721	0	35085	
6722	0	35309	
6723	0	35493	
6724	0	35620	
6725	0	35759	
6726	0	35961	
6727	0	36195	
6728	0	36432	
6729	0	36615	
6730	0	36799	
6731	0	37013	
6732	0	37209	
6733	0	37344	
6734	0	37517	
6735	0	37679	
6736	0	37849	
6737	0	38077	
6738	0	38191	
6739	0	38308	
6740	0	38317	
6741	0	38704	
6742	0	38991	
6743	0	39127	
6744	0	39189	
6745	0	39279	
6746	0	39301	
6747	0	39413	
6748	0	39639	
6749	0	39861	
6750	0	40056	
6751	0	40134	
6752	0	40281	
6753	0	40388	
6754	0	40495	
6755	0	40759	
6756	0	40969	
6757	0	41159	
6758	0	41339	
6759	0	41511	
6760	0	41777	
6761	0	41825	
6762	0	41851	
6763	0	41887	
6764	0	41972	
6765	0	42029	
6766	0	42113	
6767	0	42325	
6768	0	42416	
6769	0	42544	
6770	0	42717	
6771	0	42940	
6772	0	43216	
6773	0	43368	
6774	0	43428	
6775	0	43413	
6776	0	43356	
6777	0	43473	
6778	0	43567	
6779	0	43755	
6780	0	43872	
6781	0	44055	
6782	0	44085	
6783	0	44189	
6784	0	44196	
6785	0	44204	
6786	0	44333	
6787	0	44531	
6788	0	44708	
6789	0	44805	
6790	0	44876	
6791	0	44900	
6792	0	45025	
6793	0	45133	
6794	0	45188	
6795	0	45163	
6796	0	45253	
6797	0	45228	
6798	0	45225	
6799	0	45493	
6800	0	45780	
6801	0	45893	
6802	0	45960	
6803	0	46133	
6804	0	46261	
6805	0	46465	
6806	0	46727	
6807	0	46812	
6808	0	46821	
6809	0	46789	
6810	0	46749	
6811	0	46817	
6812	0	46991	
6813	0	47161	
6814	0	47072	
6815	0	47149	
6816	0	47012	
6817	0	46951	
6818	0	46828	
6819	0	46980	
6820	0	47173	
6821	0	47367	
6822	0	47471	
6823	0	47516	
6824	0	47597	
6825	0	47592	
6826	0	47644	
6827	0	47678	
6828	0	47805	
6829	0	47899	
6830	0	48169	
6831	0	48201	
6832	0	48222	
6833	0	48172	
6834	0	48115	
6835	0	48208	
6836	0	48223	
6837	0	48149	
6838	0	48145	
6839	0	48192	
6840	0	48244	
6841	0	48337	
6842	0	48379	
6843	0	48347	
6844	0	48317	
6845	0	48387	
6846	0	48581	
6847	0	48893	
6848	0	48985	
6849	0	49048	
6850	0	49013	
6851	0	48992	
6852	0	49136	
6853	0	49127	
6854	0	49165	
6855	0	49255	
6856	0	49236	
6857	0	49189	
6858	0	49200	
6859	0	49108	
6860	0	49132	
6861	0	49160	
6862	0	49185	
6863	0	49164	
6864	0	49104	
6865	0	49139	
6866	0	49175	
6867	0	49225	
6868	0	49321	
6869	0	49486	
6870	0	49575	
6871	0	49559	
6872	0	49601	
6873	0	49697	
6874	0	49865	
6875	0	49780	
6876	0	49717	
6877	0	49745	
6878	0	49769	
6879	0	49919	
6880	0	49985	
6881	0	49997	
6882	0	50047	
6883	0	50041	
6884	0	50004	
6885	0	49920	
6886	0	49885	
6887	0	49848	
6888	0	49829	
6889	0	49821	
6890	0	49871	
6891	0	49900	
6892	0	50005	
6893	0	50100	
6894	0	50072	
6895	0	50049	
6896	0	50105	
6897	0	50100	
6898	0	50148	
6899	0	50261	
6900	0	50144	
6901	0	50189	
6902	0	50313	
6903	0	50319	
6904	0	50255	
6905	0	50199	
6906	0	50209	
6907	0	50245	
6908	0	50364	
6909	0	50352	
6910	0	50357	
6911	0	50305	
6912	0	50331	
6913	0	50168	
6914	0	50093	
6915	0	50241	
6916	0	50377	
6917	0	50469	
6918	0	50437	
6919	0	50477	
6920	0	50425	
6921	0	50373	
6922	0	50415	
6923	0	50319	
6924	0	50257	
6925	0	50289	
6926	0	50269	
6927	0	50245	
6928	0	50199	
6929	0	50201	
6930	0	50236	
6931	0	50195	
6932	0	50045	
6933	0	50091	
6934	0	50137	
6935	0	50159	
6936	0	50041	
6937	0	50029	
6938	0	49919	
6939	0	49871	
6940	0	49868	
6941	0	49892	
6942	0	49933	
6943	0	49901	
6944	0	49921	
6945	0	50049	
6946	0	50156	
6947	0	50171	
6948	0	50045	
6949	0	49988	
6950	0	50033	
6951	0	50089	
6952	0	50076	
6953	0	50087	
6954	0	50073	
6955	0	50004	
6956	0	50055	
6957	0	50081	
6958	0	50085	
6959	0	50123	
6960	0	50080	
6961	0	49996	
6962	0	49952	
6963	0	49865	
6964	0	49745	
6965	0	49699	
6966	0	49612	
6967	0	49543	
6968	0	49502	
6969	0	49579	
6970	0	49609	
6971	0	49633	
6972	0	49603	
6973	0	49583	
6974	0	49684	
6975	0	49565	
6976	0	49549	
6977	0	49589	
6978	0	49537	
6979	0	49601	
6980	0	49565	
6981	0	49477	
6982	0	49429	
6983	0	49488	
6984	0	49621	
6985	0	49597	
6986	0	49757	
6987	0	49772	
6988	0	49597	
6989	0	49573	
6990	0	49548	
6991	0	49453	
6992	0	49409	
6993	0	49473	
6994	0	49533	
6995	0	49517	
6996	0	49345	
6997	0	49279	
6998	0	49188	
6999	0	49176	
7000	0	49113	
7001	0	49089	
7002	0	49104	
7003	0	49148	
7004	0	49183	
7005	0	49188	
7006	0	49197	
7007	0	49249	
7008	0	49204	
7009	0	49189	
7010	0	49221	
7011	0	49121	
7012	0	49113	
7013	0	49025	
7014	0	49038	
7015	0	49085	
7016	0	49052	
7017	0	49009	
7018	0	48877	
7019	0	48758	
7020	0	48733	
7021	0	48661	
7022	0	48521	
7023	0	48476	
7024	0	48564	
7025	0	48788	
7026	0	48788	
7027	0	48851	
7028	0	48831	
7029	0	48645	
7030	0	48473	
7031	0	48468	
7032	0	48359	
7033	0	48351	
7034	0	48333	
7035	0	48328	
7036	0	48385	
7037	0	48389	
7038	0	48419	
7039	0	48349	
7040	0	48396	
7041	0	48440	
7042	0	48481	
7043	0	48515	
7044	0	48457	
7045	0	48421	
7046	0	48420	
7047	0	48437	
7048	0	48471	
7049	0	48565	
7050	0	48567	
7051	0	48597	
7052	0	48681	
7053	0	48789	
7054	0	48817	
7055	0	48865	
7056	0	48965	
7057	0	49004	
7058	0	49021	
7059	0	48969	
7060	0	48980	
7061	0	49005	
7062	0	48916	
7063	0	48823	
7064	0	48775	
7065	0	48782	
7066	0	48816	
7067	0	48839	
7068	0	48820	
7069	0	48791	
7070	0	48719	
7071	0	48637	
7072	0	48540	
7073	0	48513	
7074	0	48577	
7075	0	48577	
7076	0	48597	
7077	0	48505	
7078	0	48449	
7079	0	48445	
7080	0	48517	
7081	0	48519	
7082	0	48520	
7083	0	48545	
7084	0	48463	
7085	0	48461	
7086	0	48489	
7087	0	48379	
7088	0	48303	
7089	0	48249	
7090	0	48221	
7091	0	48097	
7092	0	48028	
7093	0	48069	
7094	0	48079	
7095	0	48056	
7096	0	47947	
7097	0	47968	
7098	0	47965	
7099	0	48044	
7100	0	47969	
7101	0	48028	
7102	0	47948	
7103	0	47903	
7104	0	47860	
7105	0	47892	
7106	0	47993	
7107	0	47900	
7108	0	47884	
7109	0	47905	
7110	0	47917	
7111	0	47845	
7112	0	47880	
7113	0	47852	
7114	0	47844	
7115	0	47717	
7116	0	47800	
7117	0	48014	
7118	0	48263	
7119	0	48473	
7120	0	48664	
7121	0	48748	
7122	0	48817	
7123	0	48988	
7124	0	48905	
7125	0	48825	
7126	0	48535	
7127	0	48124	
7128	0	47773	
7129	0	47350	
7130	0	47052	
7131	0	46917	
7132	0	46953	
7133	0	46860	
7134	0	46723	
7135	0	46573	
7136	0	46361	
7137	0	46245	
7138	0	46255	
7139	0	46244	
7140	0	46068	
7141	0	46005	
7142	0	45807	
7143	0	45733	
7144	0	45548	
7145	0	45406	
7146	0	45246	
7147	0	45066	
7148	0	44817	
7149	0	44557	
7150	0	44420	
7151	0	44392	
7152	0	44324	
7153	0	44159	
7154	0	43908	
7155	0	43580	
7156	0	43348	
7157	0	43089	
7158	0	42856	
7159	0	42660	
7160	0	42605	
7161	0	42560	
7162	0	42561	
7163	0	42461	
7164	0	42349	
7165	0	42228	
7166	0	42032	
7167	0	41793	
7168	0	41503	
7169	0	41345	
7170	0	41217	
7171	0	40955	
7172	0	40784	
7173	0	40668	
7174	0	40569	
7175	0	40393	
7176	0	40159	
7177	0	39943	
7178	0	39661	
7179	0	39516	
7180	0	39390	
7181	0	39351	
7182	0	39188	
7183	0	39076	
7184	0	38881	
7185	0	38785	
7186	0	38558	
7187	0	38409	
7188	0	38135	
7189	0	38069	
7190	0	37999	
7191	0	37849	
7192	0	37763	
7193	0	37537	
7194	0	37369	
7195	0	37187	
7196	0	36961	
7197	0	36921	
7198	0	36777	
7199	0	36549	
7200	0	36292	
7201	0	36145	
7202	0	36108	
7203	0	36092	
7204	0	36019	
7205	0	35877	
7206	0	35709	
7207	0	35492	
7208	0	35429	
7209	0	35321	
7210	0	35137	
7211	0	35144	
7212	0	35044	
7213	0	34908	
7214	0	34600	
7215	0	34391	
7216	0	34373	
7217	0	34201	
7218	0	34071	
7219	0	33913	
7220	0	33772	
7221	0	33625	
7222	0	33541	
7223	0	33447	
7224	0	33328	
7225	0	33167	
7226	0	33154	
7227	0	33141	
7228	0	33060	
7229	0	32901	
7230	0	32640	
7231	0	32397	
7232	0	32295	
7233	0	32181	
7234	0	31975	
7235	0	31925	
7236	0	31895	
7237	0	31889	
7238	0	31829	
7239	0	31693	
7240	0	31682	
7241	0	31627	
7242	0	31564	
7243	0	31520	
7244	0	31499	
7245	0	31553	
7246	0	31449	
7247	0	31408	
7248	0	31373	
7249	0	31284	
7250	0	31221	
7251	0	31179	
7252	0	31225	
7253	0	31107	
7254	0	31029	
7255	0	31005	
7256	0	31111	
7257	0	31051	
7258	0	31091	
7259	0	31100	
7260	0	30942	
7261	0	30983	
7262	0	30985	
7263	0	30892	
7264	0	30903	
7265	0	30912	
7266	0	30941	
7267	0	30834	
7268	0	30853	
7269	0	30793	
7270	0	30762	
7271	0	30798	
7272	0	30921	
7273	0	31024	
7274	0	30947	
7275	0	30883	
7276	0	30815	
7277	0	30824	
7278	0	30799	
7279	0	30865	
7280	0	30914	
7281	0	30933	
7282	0	30894	
7283	0	30842	
7284	0	30903	
7285	0	30917	
7286	0	30979	
7287	0	30993	
7288	0	30967	
7289	0	30895	
7290	0	30892	
7291	0	30905	
7292	0	30820	
7293	0	30823	
7294	0	30796	
7295	0	30809	
7296	0	30854	
7297	0	30903	
7298	0	30900	
7299	0	30840	
7300	0	30806	
7301	0	30764	
7302	0	30852	
7303	0	30768	
7304	0	30719	
7305	0	30741	
7306	0	30844	
7307	0	30877	
7308	0	30869	
7309	0	30840	
7310	0	30845	
7311	0	30791	
7312	0	30768	
7313	0	30773	
7314	0	30809	
7315	0	30847	
7316	0	30856	
7317	0	30887	
7318	0	31011	
7319	0	30989	
7320	0	30959	
7321	0	31019	
7322	0	30996	
7323	0	30956	
7324	0	31044	
7325	0	31125	
7326	0	31225	
7327	0	31305	
7328	0	31340	
7329	0	31317	
7330	0	31268	
7331	0	31229	
7332	0	31171	
7333	0	31156	
7334	0	31170	
7335	0	31109	
7336	0	31104	
7337	0	31096	
7338	0	31093	
7339	0	31100	
7340	0	31095	
7341	0	31161	
7342	0	31108	
7343	0	31055	
7344	0	31073	
7345	0	31156	
7346	0	31144	
7347	0	31149	
7348	0	31145	
7349	0	31069	
7350	0	30924	
7351	0	31000	
7352	0	31125	
7353	0	31123	
7354	0	31170	
7355	0	31205	
7356	0	31201	
7357	0	31262	
7358	0	31177	
7359	0	31237	
7360	0	31261	
7361	0	31264	
7362	0	31282	
7363	0	31293	
7364	0	31279	
7365	0	31241	
7366	0	31217	
7367	0	31156	
7368	0	31204	
7369	0	31215	
7370	0	31207	
7371	0	31237	
7372	0	31245	
7373	0	31215	
7374	0	31193	
7375	0	31225	
7376	0	31205	
7377	0	31192	
7378	0	31188	
7379	0	31239	
7380	0	31329	
7381	0	31389	
7382	0	31464	
7383	0	31508	
7384	0	31511	
7385	0	31481	
7386	0	31375	
7387	0	31349	
7388	0	31268	
7389	0	31285	
7390	0	31282	
7391	0	31261	
7392	0	31293	
7393	0	31269	
7394	0	31249	
7395	0	31349	
7396	0	31261	
7397	0	31363	
7398	0	31348	
7399	0	31447	
7400	0	31447	
7401	0	31433	
7402	0	31426	
7403	0	31438	
7404	0	31516	
7405	0	31620	
7406	0	31596	
7407	0	31477	
7408	0	31517	
7409	0	31553	
7410	0	31589	
7411	0	31592	
7412	0	31583	
7413	0	31617	
7414	0	31664	
7415	0	31631	
7416	0	31613	
7417	0	31549	
7418	0	31550	
7419	0	31679	
7420	0	31640	
7421	0	31559	
7422	0	31484	
7423	0	31520	
7424	0	31577	
7425	0	31527	
7426	0	31573	
7427	0	31419	
7428	0	31439	
7429	0	31455	
7430	0	31401	
7431	0	31332	
7432	0	31299	
7433	0	31301	
7434	0	31338	
7435	0	31379	
7436	0	31367	
7437	0	31485	
7438	0	31508	
7439	0	31532	
7440	0	31485	
7441	0	31521	
7442	0	31540	
7443	0	31528	
7444	0	31600	
7445	0	31658	
7446	0	31668	
7447	0	31680	
7448	0	31633	
7449	0	31562	
7450	0	31539	
7451	0	31548	
7452	0	31521	
7453	0	31537	
7454	0	31493	
7455	0	31417	
7456	0	31465	
7457	0	31524	
7458	0	31565	
7459	0	31653	
7460	0	31549	
7461	0	31617	
7462	0	31673	
7463	0	31580	
7464	0	31568	
7465	0	31575	
7466	0	31656	
7467	0	31661	
7468	0	31597	
7469	0	31565	
7470	0	31517	
7471	0	31498	
7472	0	31511	
7473	0	31527	
7474	0	31498	
7475	0	31596	
7476	0	31607	
7477	0	31593	
7478	0	31599	
7479	0	31661	
7480	0	31777	
7481	0	31845	
7482	0	31841	
7483	0	31808	
7484	0	31781	
7485	0	31677	
7486	0	31691	
7487	0	31761	
7488	0	31773	
7489	0	31812	
7490	0	31749	
7491	0	31664	
7492	0	31693	
7493	0	31728	
7494	0	31764	
7495	0	31759	
7496	0	31735	
7497	0	31745	
7498	0	31820	
7499	0	31961	
7500	0	31937	
7501	0	31857	
7502	0	31793	
7503	0	31716	
7504	0	31760	
7505	0	31920	
7506	0	31942	
7507	0	32009	
7508	0	31946	
7509	0	31847	
7510	0	31835	
7511	0	31849	
7512	0	31961	
7513	0	31881	
7514	0	31892	
7515	0	31744	
7516	0	31729	
7517	0	31681	
7518	0	31647	
7519	0	31733	
7520	0	31704	
7521	0	31749	
7522	0	31698	
7523	0	31677	
7524	0	31604	
7525	0	31553	
7526	0	31469	
7527	0	31408	
7528	0	31393	
7529	0	31476	
7530	0	31524	
7531	0	31624	
7532	0	31593	
7533	0	31621	
7534	0	31645	
7535	0	31716	
7536	0	31783	
7537	0	31773	
7538	0	31665	
7539	0	31607	
7540	0	31598	
7541	0	31439	
7542	0	31361	
7543	0	31351	
7544	0	31340	
7545	0	31488	
7546	0	31461	
7547	0	31404	
7548	0	31278	
7549	0	31325	
7550	0	31279	
7551	0	31361	
7552	0	31364	
7553	0	31297	
7554	0	31223	
7555	0	31145	
7556	0	31036	
7557	0	31069	
7558	0	31252	
7559	0	31287	
7560	0	31252	
7561	0	31265	
7562	0	31228	
7563	0	31217	
7564	0	31197	
7565	0	31277	
7566	0	31317	
7567	0	31307	
7568	0	31329	
7569	0	31357	
7570	0	31245	
7571	0	31188	
7572	0	31205	
7573	0	31161	
7574	0	31202	
7575	0	31299	
7576	0	31221	
7577	0	31117	
7578	0	31264	
7579	0	31302	
7580	0	31301	
7581	0	31377	
7582	0	31383	
7583	0	31381	
7584	0	31468	
7585	0	31525	
7586	0	31477	
7587	0	31449	
7588	0	31539	
7589	0	31509	
7590	0	31437	
7591	0	31471	
7592	0	31432	
7593	0	31359	
7594	0	31369	
7595	0	31369	
7596	0	31329	
7597	0	31295	
7598	0	31312	
7599	0	31337	
7600	0	31268	
7601	0	31388	
7602	0	31492	
7603	0	31537	
7604	0	31581	
7605	0	31638	
7606	0	31623	
7607	0	31709	
7608	0	31677	
7609	0	31692	
7610	0	31610	
7611	0	31597	
7612	0	31699	
7613	0	31621	
7614	0	31605	
7615	0	31639	
7616	0	31632	
7617	0	31671	
7618	0	31527	
7619	0	31524	
7620	0	31581	
7621	0	31617	
7622	0	31581	
7623	0	31470	
7624	0	31377	
7625	0	31377	
7626	0	31355	
7627	0	31376	
7628	0	31367	
7629	0	31394	
7630	0	31419	
7631	0	31359	
7632	0	31453	
7633	0	31527	
7634	0	31541	
7635	0	31604	
7636	0	31638	
7637	0	31682	
7638	0	31720	
7639	0	31703	
7640	0	31666	
7641	0	31646	
7642	0	31633	
7643	0	31521	
7644	0	31501	
7645	0	31503	
7646	0	31525	
7647	0	31447	
7648	0	31457	
7649	0	31476	
7650	0	31497	
7651	0	31547	
7652	0	31585	
7653	0	31549	
7654	0	31535	
7655	0	31513	
7656	0	31644	
7657	0	31567	
7658	0	31567	
7659	0	31524	
7660	0	31505	
7661	0	31555	
7662	0	31511	
7663	0	31533	
7664	0	31613	
7665	0	31736	
7666	0	31749	
7667	0	31659	
7668	0	31601	
7669	0	31596	
7670	0	31492	
7671	0	31484	
7672	0	31536	
7673	0	31573	
7674	0	31670	
7675	0	31646	
7676	0	31716	
7677	0	31743	
7678	0	31716	
7679	0	31725	
7680	0	31725	
7681	0	31684	
7682	0	31685	
7683	0	31681	
7684	0	31647	
7685	0	31552	
7686	0	31449	
7687	0	31438	
7688	0	31465	
7689	0	31480	
7690	0	31537	
7691	0	31369	
7692	0	31313	
7693	0	31388	
7694	0	31440	
7695	0	31527	
7696	0	31607	
7697	0	31645	
7698	0	31659	
7699	0	31639	
7700	0	31744	
7701	0	31721	
7702	0	31660	
7703	0	31736	
7704	0	31733	
7705	0	31822	
7706	0	31749	
7707	0	31708	
7708	0	31773	
7709	0	31693	
7710	0	31681	
7711	0	31736	
7712	0	31689	
7713	0	31623	
7714	0	31601	
7715	0	31575	
7716	0	31564	
7717	0	31579	
7718	0	31535	
7719	0	31490	
7720	0	31485	
7721	0	31620	
7722	0	31697	
7723	0	31696	
7724	0	31719	
7725	0	31684	
7726	0	31610	
7727	0	31617	
7728	0	31561	
7729	0	31620	
7730	0	31759	
7731	0	31811	
7732	0	31823	
7733	0	31781	
7734	0	31716	
7735	0	31727	
7736	0	31704	
7737	0	31709	
7738	0	31765	
7739	0	31750	
7740	0	31717	
7741	0	31713	
7742	0	31824	
7743	0	31856	
7744	0	31796	
7745	0	31733	
7746	0	31563	
7747	0	31452	
7748	0	31521	
7749	0	31528	
7750	0	31505	
7751	0	31491	
7752	0	31421	
7753	0	31443	
7754	0	31519	
7755	0	31533	
7756	0	31439	
7757	0	31521	
7758	0	31568	
7759	0	31504	
7760	0	31593	
7761	0	31700	
7762	0	31797	
7763	0	31847	
7764	0	31711	
7765	0	31669	
7766	0	31687	
7767	0	31652	
7768	0	31551	
7769	0	31525	
7770	0	31519	
7771	0	31538	
7772	0	31551	
7773	0	31592	
7774	0	31632	
7775	0	31591	
7776	0	31590	
7777	0	31619	
7778	0	31623	
7779	0	31639	
7780	0	31597	
7781	0	31669	
7782	0	31619	
7783	0	31689	
7784	0	31692	
7785	0	31719	
7786	0	31749	
7787	0	31792	
7788	0	31780	
7789	0	31795	
7790	0	31741	
7791	0	31752	
7792	0	31805	
7793	0	31773	
7794	0	31809	
7795	0	31936	
7796	0	32005	
7797	0	31939	
7798	0	31925	
7799	0	31917	
7800	0	31877	
7801	0	31791	
7802	0	31860	
7803	0	31830	
7804	0	31840	
7805	0	31849	
7806	0	31970	
7807	0	32030	
7808	0	32057	
7809	0	32117	
7810	0	32133	
7811	0	32095	
7812	0	32095	
7813	0	32033	
7814	0	31889	
7815	0	31919	
7816	0	31917	
7817	0	31977	
7818	0	31906	
7819	0	31791	
7820	0	31829	
7821	0	31808	
7822	0	31776	
7823	0	31791	
7824	0	31871	
7825	0	31833	
7826	0	31802	
7827	0	31826	
7828	0	31929	
7829	0	31831	
7830	0	31873	
7831	0	31889	
7832	0	31885	
7833	0	31895	
7834	0	31793	
7835	0	31741	
7836	0	31749	
7837	0	31793	
7838	0	31801	
7839	0	31840	
7840	0	31856	
7841	0	31852	
7842	0	31813	
7843	0	31769	
7844	0	31820	
7845	0	31871	
7846	0	31892	
7847	0	31848	
7848	0	31746	
7849	0	31703	
7850	0	31729	
7851	0	31710	
7852	0	31664	
7853	0	31589	
7854	0	31664	
7855	0	31629	
7856	0	31651	
7857	0	31595	
7858	0	31575	
7859	0	31624	
7860	0	31597	
7861	0	31618	
7862	0	31540	
7863	0	31513	
7864	0	31553	
7865	0	31513	
7866	0	31575	
7867	0	31598	
7868	0	31696	
7869	0	31785	
7870	0	31812	
7871	0	31781	
7872	0	31675	
7873	0	31680	
7874	0	31764	
7875	0	31704	
7876	0	31804	
7877	0	31781	
7878	0	31748	
7879	0	31693	
7880	0	31715	
7881	0	31785	
7882	0	31812	
7883	0	31865	
7884	0	31805	
7885	0	31793	
7886	0	31759	
7887	0	31705	
7888	0	31687	
7889	0	31709	
7890	0	31753	
7891	0	31838	
7892	0	31804	
7893	0	31804	
7894	0	31792	
7895	0	31733	
7896	0	31827	
7897	0	31796	
7898	0	31888	
7899	0	31849	
7900	0	31815	
7901	0	31949	
7902	0	31897	
7903	0	31855	
7904	0	31953	
7905	0	32005	
7906	0	31977	
7907	0	31848	
7908	0	31849	
7909	0	31879	
7910	0	31881	
7911	0	31818	
7912	0	31790	
7913	0	31766	
7914	0	31669	
7915	0	31665	
7916	0	31735	
7917	0	31665	
7918	0	31681	
7919	0	31745	
7920	0	31773	
7921	0	31796	
7922	0	31737	
7923	0	31857	
7924	0	31846	
7925	0	31725	
7926	0	31646	
7927	0	31689	
7928	0	31677	
7929	0	31683	
7930	0	31647	
7931	0	31533	
7932	0	31565	
7933	0	31545	
7934	0	31465	
7935	0	31448	
7936	0	31503	
7937	0	31476	
7938	0	31537	
7939	0	31565	
7940	0	31461	
7941	0	31341	
7942	0	31367	
7943	0	31285	
7944	0	31190	
7945	0	31229	
7946	0	31393	
7947	0	31387	
7948	0	31345	
7949	0	31437	
7950	0	31363	
7951	0	31361	
7952	0	31369	
7953	0	31419	
7954	0	31432	
7955	0	31377	
7956	0	31344	
7957	0	31431	
7958	0	31413	
7959	0	31456	
7960	0	31379	
7961	0	31335	
7962	0	31376	
7963	0	31406	
7964	0	31411	
7965	0	31377	
7966	0	31393	
7967	0	31401	
7968	0	31449	
7969	0	31413	
7970	0	31429	
7971	0	31567	
7972	0	31623	
7973	0	31624	
7974	0	31632	
7975	0	31606	
7976	0	31590	
7977	0	31572	
7978	0	31471	
7979	0	31443	
7980	0	31417	
7981	0	31457	
7982	0	31362	
7983	0	31341	
7984	0	31271	
7985	0	31268	
7986	0	31372	
7987	0	31375	
7988	0	31353	
7989	0	31244	
7990	0	31103	
7991	0	31001	
7992	0	31021	
7993	0	31000	
7994	0	30983	
7995	0	30967	
7996	0	31012	
7997	0	30985	
7998	0	30999	
7999	0	30881	
8000	0	30793	
8001	0	30756	
8002	0	30822	
8003	0	30984	
8004	0	31073	
8005	0	31057	
8006	0	31111	
8007	0	31093	
8008	0	31012	
8009	0	30941	
8010	0	30879	
8011	0	30940	
8012	0	30916	
8013	0	30876	
8014	0	30976	
8015	0	31097	
8016	0	31113	
8017	0	31165	
8018	0	31202	
8019	0	31204	
8020	0	31144	
8021	0	31196	
8022	0	31219	
8023	0	31279	
8024	0	31374	
8025	0	31394	
8026	0	31385	
8027	0	31428	
8028	0	31484	
8029	0	31517	
8030	0	31472	
8031	0	31463	
8032	0	31346	
8033	0	31411	
