# OpenSignals Text File Format. Version 1
# {"00:07:80:F9:DD:B8": {"position": 0, "device": "biosignalsplux", "device name": "00:07:80:F9:DD:B8", "device connection": "BTH00:07:80:F9:DD:B8", "sampling rate": 1000, "resolution": [16], "firmware version": 773, "comments": "Sample EOG signal (vertical electrode positioning) during reptitive blicking.", "keywords": "", "mode": 0, "sync interval": 2, "date": "2020-4-17", "time": "11:24:13.551", "channels": [1], "sensor": ["EOG"], "label": ["EOG"], "column": ["nSeq", "DI", "EOG"], "special": [{}], "digital IO": [0, 1]}}
# EndOfHeader
0	0	32513	
1	0	32463	
2	0	32381	
3	0	32394	
4	0	32401	
5	0	32425	
6	0	32531	
7	0	32595	
8	0	32597	
9	0	32597	
10	0	32627	
11	0	32573	
12	0	32540	
13	0	32567	
14	0	32560	
15	0	32524	
16	0	32524	
17	0	32541	
18	0	32473	
19	0	32481	
20	0	32557	
21	0	32527	
22	0	32567	
23	0	32620	
24	0	32683	
25	0	32633	
26	0	32673	
27	0	32681	
28	0	32676	
29	0	32693	
30	0	32612	
31	0	32648	
32	0	32625	
33	0	32683	
34	0	32761	
35	0	32717	
36	0	32773	
37	0	32768	
38	0	32751	
39	0	32756	
40	0	32737	
41	0	32748	
42	0	32717	
43	0	32717	
44	0	32748	
45	0	32781	
46	0	32807	
47	0	32729	
48	0	32733	
49	0	32677	
50	0	32605	
51	0	32681	
52	0	32713	
53	0	32655	
54	0	32712	
55	0	32715	
56	0	32759	
57	0	32757	
58	0	32741	
59	0	32720	
60	0	32660	
61	0	32679	
62	0	32692	
63	0	32736	
64	0	32751	
65	0	32729	
66	0	32744	
67	0	32712	
68	0	32691	
69	0	32676	
70	0	32677	
71	0	32620	
72	0	32666	
73	0	32709	
74	0	32692	
75	0	32609	
76	0	32629	
77	0	32695	
78	0	32769	
79	0	32703	
80	0	32769	
81	0	32757	
82	0	32739	
83	0	32709	
84	0	32697	
85	0	32711	
86	0	32639	
87	0	32717	
88	0	32771	
89	0	32771	
90	0	32845	
91	0	32783	
92	0	32789	
93	0	32708	
94	0	32647	
95	0	32669	
96	0	32647	
97	0	32629	
98	0	32713	
99	0	32708	
100	0	32829	
101	0	32805	
102	0	32809	
103	0	32774	
104	0	32754	
105	0	32848	
106	0	32853	
107	0	32871	
108	0	32796	
109	0	32839	
110	0	32788	
111	0	32736	
112	0	32701	
113	0	32696	
114	0	32758	
115	0	32779	
116	0	32780	
117	0	32805	
118	0	32813	
119	0	32889	
120	0	32964	
121	0	32977	
122	0	32889	
123	0	32916	
124	0	32865	
125	0	32961	
126	0	32985	
127	0	33021	
128	0	32957	
129	0	32996	
130	0	32987	
131	0	33077	
132	0	33099	
133	0	33104	
134	0	33212	
135	0	33164	
136	0	33148	
137	0	33159	
138	0	33100	
139	0	33047	
140	0	33044	
141	0	32957	
142	0	32935	
143	0	32951	
144	0	32972	
145	0	33063	
146	0	33105	
147	0	33160	
148	0	33235	
149	0	33268	
150	0	33191	
151	0	33135	
152	0	33079	
153	0	33074	
154	0	33095	
155	0	33091	
156	0	33101	
157	0	33159	
158	0	33092	
159	0	33137	
160	0	33217	
161	0	33179	
162	0	33137	
163	0	33125	
164	0	33141	
165	0	33150	
166	0	33115	
167	0	33069	
168	0	33072	
169	0	33099	
170	0	33052	
171	0	33103	
172	0	33157	
173	0	33098	
174	0	33085	
175	0	33055	
176	0	32961	
177	0	32952	
178	0	33013	
179	0	33013	
180	0	32969	
181	0	32933	
182	0	33045	
183	0	33167	
184	0	33185	
185	0	33241	
186	0	33233	
187	0	33210	
188	0	33123	
189	0	33163	
190	0	33231	
191	0	33309	
192	0	33204	
193	0	33169	
194	0	33105	
195	0	33065	
196	0	33067	
197	0	33023	
198	0	33065	
199	0	33124	
200	0	33185	
201	0	33191	
202	0	33196	
203	0	33173	
204	0	33141	
205	0	33109	
206	0	33156	
207	0	33268	
208	0	33197	
209	0	33199	
210	0	33293	
211	0	33365	
212	0	33375	
213	0	33339	
214	0	33333	
215	0	33249	
216	0	33207	
217	0	33228	
218	0	33191	
219	0	33165	
220	0	33232	
221	0	33185	
222	0	33252	
223	0	33345	
224	0	33439	
225	0	33423	
226	0	33375	
227	0	33359	
228	0	33311	
229	0	33317	
230	0	33349	
231	0	33205	
232	0	33193	
233	0	33215	
234	0	33133	
235	0	33100	
236	0	33056	
237	0	33055	
238	0	33107	
239	0	33183	
240	0	33221	
241	0	33261	
242	0	33184	
243	0	33155	
244	0	33209	
245	0	33159	
246	0	33077	
247	0	33029	
248	0	33040	
249	0	33096	
250	0	33128	
251	0	33113	
252	0	33025	
253	0	32957	
254	0	32924	
255	0	32925	
256	0	32897	
257	0	32841	
258	0	32844	
259	0	32877	
260	0	32889	
261	0	33016	
262	0	33144	
263	0	33175	
264	0	33157	
265	0	33177	
266	0	33183	
267	0	33141	
268	0	33021	
269	0	33069	
270	0	33049	
271	0	33029	
272	0	33005	
273	0	33045	
274	0	33191	
275	0	33116	
276	0	33171	
277	0	33158	
278	0	33199	
279	0	33188	
280	0	33247	
281	0	33233	
282	0	33239	
283	0	33237	
284	0	33172	
285	0	33112	
286	0	33028	
287	0	32985	
288	0	33029	
289	0	33073	
290	0	33164	
291	0	33167	
292	0	33221	
293	0	33161	
294	0	33145	
295	0	33089	
296	0	33151	
297	0	33219	
298	0	33337	
299	0	33405	
300	0	33457	
301	0	33393	
302	0	33329	
303	0	33332	
304	0	33303	
305	0	33331	
306	0	33359	
307	0	33359	
308	0	33317	
309	0	33270	
310	0	33261	
311	0	33223	
312	0	33284	
313	0	33338	
314	0	33309	
315	0	33329	
316	0	33301	
317	0	33257	
318	0	33197	
319	0	33116	
320	0	33231	
321	0	33248	
322	0	33224	
323	0	33215	
324	0	33237	
325	0	33245	
326	0	33232	
327	0	33315	
328	0	33333	
329	0	33265	
330	0	33239	
331	0	33141	
332	0	33071	
333	0	33049	
334	0	33065	
335	0	33085	
336	0	33108	
337	0	33116	
338	0	33053	
339	0	33079	
340	0	33085	
341	0	33120	
342	0	33196	
343	0	33232	
344	0	33247	
345	0	33347	
346	0	33349	
347	0	33257	
348	0	33260	
349	0	33165	
350	0	33212	
351	0	33188	
352	0	33223	
353	0	33264	
354	0	33273	
355	0	33316	
356	0	33261	
357	0	33219	
358	0	33298	
359	0	33339	
360	0	33285	
361	0	33233	
362	0	33201	
363	0	33245	
364	0	33325	
365	0	33335	
366	0	33319	
367	0	33412	
368	0	33383	
369	0	33397	
370	0	33431	
371	0	33431	
372	0	33361	
373	0	33344	
374	0	33245	
375	0	33192	
376	0	33261	
377	0	33264	
378	0	33247	
379	0	33244	
380	0	33185	
381	0	33175	
382	0	33163	
383	0	33101	
384	0	33155	
385	0	33221	
386	0	33277	
387	0	33311	
388	0	33225	
389	0	33301	
390	0	33364	
391	0	33439	
392	0	33477	
393	0	33461	
394	0	33396	
395	0	33465	
396	0	33533	
397	0	33519	
398	0	33457	
399	0	33397	
400	0	33381	
401	0	33511	
402	0	33513	
403	0	33409	
404	0	33423	
405	0	33377	
406	0	33260	
407	0	33289	
408	0	33332	
409	0	33367	
410	0	33245	
411	0	33393	
412	0	33464	
413	0	33505	
414	0	33497	
415	0	33525	
416	0	33489	
417	0	33423	
418	0	33423	
419	0	33509	
420	0	33529	
421	0	33541	
422	0	33584	
423	0	33572	
424	0	33613	
425	0	33524	
426	0	33525	
427	0	33467	
428	0	33564	
429	0	33621	
430	0	33557	
431	0	33592	
432	0	33516	
433	0	33609	
434	0	33597	
435	0	33572	
436	0	33551	
437	0	33581	
438	0	33607	
439	0	33703	
440	0	33700	
441	0	33673	
442	0	33609	
443	0	33581	
444	0	33649	
445	0	33600	
446	0	33511	
447	0	33501	
448	0	33471	
449	0	33537	
450	0	33501	
451	0	33423	
452	0	33486	
453	0	33485	
454	0	33561	
455	0	33535	
456	0	33581	
457	0	33571	
458	0	33537	
459	0	33408	
460	0	33401	
461	0	33415	
462	0	33457	
463	0	33405	
464	0	33423	
465	0	33409	
466	0	33340	
467	0	33421	
468	0	33437	
469	0	33404	
470	0	33421	
471	0	33412	
472	0	33365	
473	0	33380	
474	0	33292	
475	0	33244	
476	0	33236	
477	0	33311	
478	0	33375	
479	0	33389	
480	0	33377	
481	0	33399	
482	0	33353	
483	0	33245	
484	0	33157	
485	0	33089	
486	0	33065	
487	0	33061	
488	0	33085	
489	0	33085	
490	0	33093	
491	0	33151	
492	0	33196	
493	0	33200	
494	0	33219	
495	0	33221	
496	0	33213	
497	0	33295	
498	0	33220	
499	0	33242	
500	0	33279	
501	0	33215	
502	0	33172	
503	0	33209	
504	0	33261	
505	0	33261	
506	0	33269	
507	0	33319	
508	0	33293	
509	0	33184	
510	0	33069	
511	0	33044	
512	0	33005	
513	0	32985	
514	0	33003	
515	0	32953	
516	0	33016	
517	0	33125	
518	0	33183	
519	0	33225	
520	0	33252	
521	0	33199	
522	0	33301	
523	0	33247	
524	0	33257	
525	0	33245	
526	0	33241	
527	0	33269	
528	0	33281	
529	0	33220	
530	0	33351	
531	0	33351	
532	0	33429	
533	0	33397	
534	0	33364	
535	0	33343	
536	0	33365	
537	0	33353	
538	0	33359	
539	0	33367	
540	0	33372	
541	0	33313	
542	0	33279	
543	0	33317	
544	0	33293	
545	0	33231	
546	0	33234	
547	0	33217	
548	0	33153	
549	0	33201	
550	0	33190	
551	0	33225	
552	0	33149	
553	0	33224	
554	0	33331	
555	0	33416	
556	0	33409	
557	0	33355	
558	0	33313	
559	0	33252	
560	0	33284	
561	0	33197	
562	0	33148	
563	0	33185	
564	0	33253	
565	0	33221	
566	0	33201	
567	0	33245	
568	0	33252	
569	0	33317	
570	0	33245	
571	0	33256	
572	0	33241	
573	0	33199	
574	0	33278	
575	0	33287	
576	0	33277	
577	0	33280	
578	0	33239	
579	0	33329	
580	0	33327	
581	0	33289	
582	0	33319	
583	0	33224	
584	0	33205	
585	0	33181	
586	0	33185	
587	0	33228	
588	0	33253	
589	0	33293	
590	0	33376	
591	0	33407	
592	0	33399	
593	0	33407	
594	0	33381	
595	0	33321	
596	0	33285	
597	0	33223	
598	0	33230	
599	0	33255	
600	0	33213	
601	0	33193	
602	0	33229	
603	0	33185	
604	0	33261	
605	0	33177	
606	0	33154	
607	0	33119	
608	0	33117	
609	0	33089	
610	0	33105	
611	0	33231	
612	0	33185	
613	0	33143	
614	0	33241	
615	0	33181	
616	0	33137	
617	0	33167	
618	0	33233	
619	0	33172	
620	0	33241	
621	0	33193	
622	0	33203	
623	0	33189	
624	0	33177	
625	0	33189	
626	0	33212	
627	0	33273	
628	0	33330	
629	0	33305	
630	0	33303	
631	0	33268	
632	0	33219	
633	0	33173	
634	0	33227	
635	0	33253	
636	0	33295	
637	0	33277	
638	0	33248	
639	0	33161	
640	0	33117	
641	0	33143	
642	0	33189	
643	0	33161	
644	0	33183	
645	0	33181	
646	0	33199	
647	0	33188	
648	0	33223	
649	0	33294	
650	0	33261	
651	0	33294	
652	0	33287	
653	0	33307	
654	0	33364	
655	0	33380	
656	0	33331	
657	0	33177	
658	0	33151	
659	0	33081	
660	0	32982	
661	0	32973	
662	0	32965	
663	0	33012	
664	0	33078	
665	0	33199	
666	0	33291	
667	0	33300	
668	0	33288	
669	0	33383	
670	0	33319	
671	0	33389	
672	0	33317	
673	0	33263	
674	0	33236	
675	0	33278	
676	0	33249	
677	0	33237	
678	0	33263	
679	0	33271	
680	0	33276	
681	0	33239	
682	0	33226	
683	0	33301	
684	0	33317	
685	0	33257	
686	0	33260	
687	0	33289	
688	0	33287	
689	0	33184	
690	0	33187	
691	0	33161	
692	0	33149	
693	0	33097	
694	0	33070	
695	0	33139	
696	0	33099	
697	0	33084	
698	0	33171	
699	0	33204	
700	0	33159	
701	0	33063	
702	0	33097	
703	0	33089	
704	0	33045	
705	0	33005	
706	0	32993	
707	0	32944	
708	0	32897	
709	0	32853	
710	0	32843	
711	0	32848	
712	0	32836	
713	0	32869	
714	0	32972	
715	0	33091	
716	0	33065	
717	0	33055	
718	0	33053	
719	0	33039	
720	0	33047	
721	0	33061	
722	0	33069	
723	0	33088	
724	0	32976	
725	0	32929	
726	0	32989	
727	0	32981	
728	0	33004	
729	0	33056	
730	0	33045	
731	0	33039	
732	0	33068	
733	0	33097	
734	0	33061	
735	0	33245	
736	0	33253	
737	0	33303	
738	0	33415	
739	0	33506	
740	0	33553	
741	0	33540	
742	0	33537	
743	0	33433	
744	0	33421	
745	0	33405	
746	0	33343	
747	0	33284	
748	0	33303	
749	0	33285	
750	0	33353	
751	0	33368	
752	0	33375	
753	0	33423	
754	0	33498	
755	0	33543	
756	0	33541	
757	0	33488	
758	0	33495	
759	0	33417	
760	0	33375	
761	0	33305	
762	0	33221	
763	0	33225	
764	0	33232	
765	0	33343	
766	0	33317	
767	0	33307	
768	0	33245	
769	0	33268	
770	0	33244	
771	0	33324	
772	0	33396	
773	0	33397	
774	0	33413	
775	0	33453	
776	0	33425	
777	0	33441	
778	0	33364	
779	0	33433	
780	0	33376	
781	0	33377	
782	0	33395	
783	0	33413	
784	0	33393	
785	0	33411	
786	0	33369	
787	0	33421	
788	0	33449	
789	0	33405	
790	0	33420	
791	0	33455	
792	0	33463	
793	0	33436	
794	0	33396	
795	0	33261	
796	0	33240	
797	0	33239	
798	0	33181	
799	0	33133	
800	0	33074	
801	0	33077	
802	0	33131	
803	0	33123	
804	0	33119	
805	0	33196	
806	0	33312	
807	0	33245	
808	0	33269	
809	0	33287	
810	0	33265	
811	0	33193	
812	0	33245	
813	0	33239	
814	0	33212	
815	0	33305	
816	0	33316	
817	0	33301	
818	0	33204	
819	0	33093	
820	0	33100	
821	0	33101	
822	0	33088	
823	0	33089	
824	0	33089	
825	0	33091	
826	0	33144	
827	0	33187	
828	0	33265	
829	0	33270	
830	0	33317	
831	0	33264	
832	0	33256	
833	0	33215	
834	0	33237	
835	0	33239	
836	0	33129	
837	0	33073	
838	0	33069	
839	0	33051	
840	0	33076	
841	0	33113	
842	0	33101	
843	0	33049	
844	0	33065	
845	0	33053	
846	0	33029	
847	0	33003	
848	0	33081	
849	0	33057	
850	0	32955	
851	0	32917	
852	0	32955	
853	0	32955	
854	0	33005	
855	0	32969	
856	0	33009	
857	0	32988	
858	0	33064	
859	0	33091	
860	0	33172	
861	0	33222	
862	0	33117	
863	0	33093	
864	0	33155	
865	0	33045	
866	0	32965	
867	0	32871	
868	0	32798	
869	0	32839	
870	0	32863	
871	0	32868	
872	0	32950	
873	0	32965	
874	0	33059	
875	0	33061	
876	0	33047	
877	0	32973	
878	0	32983	
879	0	32909	
880	0	32954	
881	0	32956	
882	0	32924	
883	0	32936	
884	0	33025	
885	0	33137	
886	0	33125	
887	0	33156	
888	0	33290	
889	0	33245	
890	0	33357	
891	0	33473	
892	0	33583	
893	0	33589	
894	0	33609	
895	0	33676	
896	0	33676	
897	0	33745	
898	0	33799	
899	0	33783	
900	0	33695	
901	0	33593	
902	0	33525	
903	0	33594	
904	0	33597	
905	0	33685	
906	0	33769	
907	0	33796	
908	0	33879	
909	0	33852	
910	0	33793	
911	0	33749	
912	0	33718	
913	0	33709	
914	0	33676	
915	0	33659	
916	0	33586	
917	0	33477	
918	0	33479	
919	0	33431	
920	0	33401	
921	0	33421	
922	0	33361	
923	0	33347	
924	0	33349	
925	0	33365	
926	0	33329	
927	0	33325	
928	0	33220	
929	0	33189	
930	0	33105	
931	0	33091	
932	0	33109	
933	0	33112	
934	0	33089	
935	0	33031	
936	0	33081	
937	0	33116	
938	0	33159	
939	0	33142	
940	0	33209	
941	0	33225	
942	0	33161	
943	0	33060	
944	0	33016	
945	0	33049	
946	0	33021	
947	0	33068	
948	0	33048	
949	0	33085	
950	0	33007	
951	0	33064	
952	0	33135	
953	0	33172	
954	0	33231	
955	0	33249	
956	0	33244	
957	0	33233	
958	0	33241	
959	0	33193	
960	0	33221	
961	0	33255	
962	0	33273	
963	0	33205	
964	0	33193	
965	0	33140	
966	0	33214	
967	0	33236	
968	0	33281	
969	0	33260	
970	0	33289	
971	0	33173	
972	0	33197	
973	0	33209	
974	0	33260	
975	0	33245	
976	0	33267	
977	0	33272	
978	0	33335	
979	0	33331	
980	0	33232	
981	0	33216	
982	0	33255	
983	0	33217	
984	0	33239	
985	0	33244	
986	0	33197	
987	0	33149	
988	0	33125	
989	0	33072	
990	0	33037	
991	0	33072	
992	0	33089	
993	0	33121	
994	0	33093	
995	0	33186	
996	0	33216	
997	0	33257	
998	0	33320	
999	0	33276	
1000	0	33285	
1001	0	33257	
1002	0	33279	
1003	0	33244	
1004	0	33241	
1005	0	33164	
1006	0	33085	
1007	0	33047	
1008	0	33031	
1009	0	33095	
1010	0	33117	
1011	0	33244	
1012	0	33221	
1013	0	33113	
1014	0	33215	
1015	0	33181	
1016	0	33233	
1017	0	33277	
1018	0	33311	
1019	0	33317	
1020	0	33337	
1021	0	33261	
1022	0	33229	
1023	0	33157	
1024	0	33139	
1025	0	33140	
1026	0	33104	
1027	0	33060	
1028	0	33005	
1029	0	33033	
1030	0	33129	
1031	0	33124	
1032	0	33197	
1033	0	33243	
1034	0	33252	
1035	0	33325	
1036	0	33322	
1037	0	33285	
1038	0	33265	
1039	0	33113	
1040	0	33182	
1041	0	33295	
1042	0	33340	
1043	0	33357	
1044	0	33421	
1045	0	33425	
1046	0	33441	
1047	0	33433	
1048	0	33459	
1049	0	33409	
1050	0	33375	
1051	0	33376	
1052	0	33352	
1053	0	33332	
1054	0	33393	
1055	0	33391	
1056	0	33345	
1057	0	33236	
1058	0	33335	
1059	0	33346	
1060	0	33367	
1061	0	33309	
1062	0	33305	
1063	0	33327	
1064	0	33399	
1065	0	33397	
1066	0	33433	
1067	0	33437	
1068	0	33469	
1069	0	33435	
1070	0	33437	
1071	0	33289	
1072	0	33341	
1073	0	33273	
1074	0	33251	
1075	0	33267	
1076	0	33263	
1077	0	33309	
1078	0	33303	
1079	0	33279	
1080	0	33325	
1081	0	33367	
1082	0	33303	
1083	0	33273	
1084	0	33349	
1085	0	33339	
1086	0	33329	
1087	0	33317	
1088	0	33213	
1089	0	33233	
1090	0	33159	
1091	0	33177	
1092	0	33144	
1093	0	33215	
1094	0	33271	
1095	0	33240	
1096	0	33215	
1097	0	33228	
1098	0	33268	
1099	0	33287	
1100	0	33317	
1101	0	33377	
1102	0	33417	
1103	0	33364	
1104	0	33367	
1105	0	33381	
1106	0	33353	
1107	0	33269	
1108	0	33257	
1109	0	33193	
1110	0	33158	
1111	0	33149	
1112	0	33201	
1113	0	33215	
1114	0	33156	
1115	0	33229	
1116	0	33184	
1117	0	33188	
1118	0	33236	
1119	0	33295	
1120	0	33232	
1121	0	33135	
1122	0	33049	
1123	0	33000	
1124	0	33037	
1125	0	33108	
1126	0	33169	
1127	0	33241	
1128	0	33229	
1129	0	33241	
1130	0	33365	
1131	0	33393	
1132	0	33399	
1133	0	33253	
1134	0	33230	
1135	0	33225	
1136	0	33221	
1137	0	33323	
1138	0	33373	
1139	0	33365	
1140	0	33281	
1141	0	33269	
1142	0	33135	
1143	0	33154	
1144	0	33177	
1145	0	33160	
1146	0	33100	
1147	0	33195	
1148	0	33223	
1149	0	33193	
1150	0	33165	
1151	0	33088	
1152	0	33069	
1153	0	33135	
1154	0	33172	
1155	0	33191	
1156	0	33129	
1157	0	33099	
1158	0	33140	
1159	0	33127	
1160	0	33113	
1161	0	33085	
1162	0	33177	
1163	0	33189	
1164	0	33188	
1165	0	33151	
1166	0	33005	
1167	0	33033	
1168	0	33099	
1169	0	33159	
1170	0	33141	
1171	0	33191	
1172	0	33181	
1173	0	33095	
1174	0	33112	
1175	0	33136	
1176	0	33155	
1177	0	33136	
1178	0	33181	
1179	0	33183	
1180	0	33121	
1181	0	33150	
1182	0	33185	
1183	0	33259	
1184	0	33267	
1185	0	33205	
1186	0	33221	
1187	0	33237	
1188	0	33313	
1189	0	33236	
1190	0	33189	
1191	0	33092	
1192	0	33129	
1193	0	33109	
1194	0	33149	
1195	0	33180	
1196	0	33079	
1197	0	33085	
1198	0	33163	
1199	0	33036	
1200	0	32969	
1201	0	32957	
1202	0	32999	
1203	0	33061	
1204	0	33004	
1205	0	33053	
1206	0	32981	
1207	0	32945	
1208	0	32985	
1209	0	32961	
1210	0	33035	
1211	0	33037	
1212	0	33008	
1213	0	32966	
1214	0	32992	
1215	0	33055	
1216	0	33143	
1217	0	33125	
1218	0	33172	
1219	0	33104	
1220	0	33135	
1221	0	33187	
1222	0	33193	
1223	0	33106	
1224	0	33125	
1225	0	33097	
1226	0	33061	
1227	0	33007	
1228	0	32943	
1229	0	32947	
1230	0	32972	
1231	0	32977	
1232	0	33019	
1233	0	32984	
1234	0	33005	
1235	0	32981	
1236	0	33039	
1237	0	33037	
1238	0	32958	
1239	0	32973	
1240	0	32989	
1241	0	33004	
1242	0	32952	
1243	0	32969	
1244	0	32962	
1245	0	32993	
1246	0	32940	
1247	0	32877	
1248	0	32945	
1249	0	33025	
1250	0	33017	
1251	0	32989	
1252	0	33093	
1253	0	33025	
1254	0	33073	
1255	0	33093	
1256	0	33039	
1257	0	33055	
1258	0	33013	
1259	0	32948	
1260	0	32931	
1261	0	32940	
1262	0	33033	
1263	0	33093	
1264	0	33015	
1265	0	32969	
1266	0	32931	
1267	0	32970	
1268	0	32937	
1269	0	32977	
1270	0	32901	
1271	0	32836	
1272	0	32813	
1273	0	32884	
1274	0	32937	
1275	0	32921	
1276	0	32871	
1277	0	32901	
1278	0	32857	
1279	0	32793	
1280	0	32743	
1281	0	32701	
1282	0	32727	
1283	0	32727	
1284	0	32769	
1285	0	32826	
1286	0	32927	
1287	0	32801	
1288	0	32812	
1289	0	32837	
1290	0	32981	
1291	0	33013	
1292	0	32998	
1293	0	32939	
1294	0	32985	
1295	0	33033	
1296	0	33137	
1297	0	33151	
1298	0	33205	
1299	0	33199	
1300	0	33127	
1301	0	33065	
1302	0	33105	
1303	0	33071	
1304	0	33065	
1305	0	33057	
1306	0	33021	
1307	0	33047	
1308	0	33075	
1309	0	33137	
1310	0	33172	
1311	0	33157	
1312	0	33172	
1313	0	33096	
1314	0	33057	
1315	0	33061	
1316	0	33149	
1317	0	33101	
1318	0	33061	
1319	0	33049	
1320	0	33063	
1321	0	33061	
1322	0	33149	
1323	0	33185	
1324	0	33241	
1325	0	33300	
1326	0	33273	
1327	0	33341	
1328	0	33351	
1329	0	33441	
1330	0	33547	
1331	0	33607	
1332	0	33613	
1333	0	33687	
1334	0	34093	
1335	0	34585	
1336	0	34949	
1337	0	35049	
1338	0	34807	
1339	0	34529	
1340	0	34367	
1341	0	34336	
1342	0	34443	
1343	0	34401	
1344	0	34287	
1345	0	34345	
1346	0	34457	
1347	0	34524	
1348	0	34615	
1349	0	34980	
1350	0	35620	
1351	0	36461	
1352	0	37253	
1353	0	37652	
1354	0	37687	
1355	0	37793	
1356	0	38293	
1357	0	38740	
1358	0	38653	
1359	0	38324	
1360	0	38167	
1361	0	38388	
1362	0	38777	
1363	0	39209	
1364	0	39687	
1365	0	40287	
1366	0	40903	
1367	0	41464	
1368	0	42051	
1369	0	42553	
1370	0	43021	
1371	0	43669	
1372	0	44271	
1373	0	44909	
1374	0	45589	
1375	0	46473	
1376	0	47101	
1377	0	47645	
1378	0	48493	
1379	0	49436	
1380	0	49753	
1381	0	50037	
1382	0	50348	
1383	0	50745	
1384	0	51377	
1385	0	52129	
1386	0	52661	
1387	0	53093	
1388	0	53269	
1389	0	53469	
1390	0	53781	
1391	0	54381	
1392	0	55197	
1393	0	55887	
1394	0	56517	
1395	0	57105	
1396	0	57697	
1397	0	58116	
1398	0	58467	
1399	0	58857	
1400	0	59375	
1401	0	59876	
1402	0	60437	
1403	0	60917	
1404	0	61261	
1405	0	61549	
1406	0	61789	
1407	0	62014	
1408	0	62196	
1409	0	62381	
1410	0	62633	
1411	0	62788	
1412	0	62909	
1413	0	63135	
1414	0	63367	
1415	0	63465	
1416	0	63533	
1417	0	63531	
1418	0	63529	
1419	0	63533	
1420	0	63533	
1421	0	63532	
1422	0	63528	
1423	0	63529	
1424	0	63533	
1425	0	63532	
1426	0	63529	
1427	0	63532	
1428	0	63528	
1429	0	63528	
1430	0	63396	
1431	0	63289	
1432	0	63125	
1433	0	62997	
1434	0	62877	
1435	0	62789	
1436	0	62617	
1437	0	62437	
1438	0	62203	
1439	0	61872	
1440	0	61557	
1441	0	61301	
1442	0	60977	
1443	0	60669	
1444	0	60377	
1445	0	60215	
1446	0	59881	
1447	0	59537	
1448	0	59148	
1449	0	58797	
1450	0	58357	
1451	0	58057	
1452	0	57645	
1453	0	57244	
1454	0	56925	
1455	0	56564	
1456	0	56253	
1457	0	55868	
1458	0	55404	
1459	0	54921	
1460	0	54500	
1461	0	54087	
1462	0	53751	
1463	0	53413	
1464	0	53092	
1465	0	52721	
1466	0	52389	
1467	0	52077	
1468	0	51675	
1469	0	51365	
1470	0	50956	
1471	0	50679	
1472	0	50369	
1473	0	50097	
1474	0	49705	
1475	0	49337	
1476	0	49052	
1477	0	48725	
1478	0	48524	
1479	0	48367	
1480	0	48023	
1481	0	47756	
1482	0	47516	
1483	0	47263	
1484	0	46973	
1485	0	46701	
1486	0	46437	
1487	0	46127	
1488	0	45780	
1489	0	45585	
1490	0	45321	
1491	0	45145	
1492	0	44861	
1493	0	44601	
1494	0	44325	
1495	0	44053	
1496	0	43860	
1497	0	43685	
1498	0	43477	
1499	0	43321	
1500	0	43047	
1501	0	42895	
1502	0	42764	
1503	0	42595	
1504	0	42397	
1505	0	42191	
1506	0	42041	
1507	0	41829	
1508	0	41684	
1509	0	41455	
1510	0	41312	
1511	0	41167	
1512	0	41027	
1513	0	40911	
1514	0	40749	
1515	0	40621	
1516	0	40449	
1517	0	40143	
1518	0	40001	
1519	0	39875	
1520	0	39684	
1521	0	39492	
1522	0	39332	
1523	0	39235	
1524	0	39103	
1525	0	39009	
1526	0	38919	
1527	0	38869	
1528	0	38849	
1529	0	38752	
1530	0	38652	
1531	0	38461	
1532	0	38367	
1533	0	38197	
1534	0	38127	
1535	0	38031	
1536	0	38001	
1537	0	37857	
1538	0	37805	
1539	0	37653	
1540	0	37548	
1541	0	37415	
1542	0	37313	
1543	0	37253	
1544	0	37156	
1545	0	37108	
1546	0	36997	
1547	0	36893	
1548	0	36777	
1549	0	36772	
1550	0	36613	
1551	0	36465	
1552	0	36304	
1553	0	36274	
1554	0	36113	
1555	0	36133	
1556	0	36077	
1557	0	36017	
1558	0	35964	
1559	0	35925	
1560	0	35853	
1561	0	35697	
1562	0	35648	
1563	0	35589	
1564	0	35556	
1565	0	35570	
1566	0	35559	
1567	0	35481	
1568	0	35468	
1569	0	35461	
1570	0	35505	
1571	0	35364	
1572	0	35313	
1573	0	35134	
1574	0	35131	
1575	0	35016	
1576	0	34937	
1577	0	34957	
1578	0	34949	
1579	0	34900	
1580	0	34812	
1581	0	34820	
1582	0	34765	
1583	0	34665	
1584	0	34625	
1585	0	34653	
1586	0	34595	
1587	0	34605	
1588	0	34508	
1589	0	34475	
1590	0	34420	
1591	0	34301	
1592	0	34283	
1593	0	34304	
1594	0	34249	
1595	0	34233	
1596	0	34249	
1597	0	34201	
1598	0	34173	
1599	0	34181	
1600	0	34089	
1601	0	34028	
1602	0	34023	
1603	0	34013	
1604	0	33973	
1605	0	33936	
1606	0	33974	
1607	0	33845	
1608	0	33736	
1609	0	33629	
1610	0	33647	
1611	0	33649	
1612	0	33592	
1613	0	33557	
1614	0	33493	
1615	0	33492	
1616	0	33449	
1617	0	33477	
1618	0	33460	
1619	0	33485	
1620	0	33399	
1621	0	33349	
1622	0	33321	
1623	0	33329	
1624	0	33196	
1625	0	33201	
1626	0	33268	
1627	0	33293	
1628	0	33313	
1629	0	33143	
1630	0	33108	
1631	0	33145	
1632	0	33111	
1633	0	33133	
1634	0	33113	
1635	0	33120	
1636	0	33117	
1637	0	33037	
1638	0	33029	
1639	0	32939	
1640	0	32925	
1641	0	32884	
1642	0	32937	
1643	0	32959	
1644	0	32953	
1645	0	32977	
1646	0	33096	
1647	0	33037	
1648	0	32949	
1649	0	32901	
1650	0	32825	
1651	0	32813	
1652	0	32803	
1653	0	32765	
1654	0	32797	
1655	0	32737	
1656	0	32753	
1657	0	32803	
1658	0	32804	
1659	0	32824	
1660	0	32711	
1661	0	32691	
1662	0	32593	
1663	0	32581	
1664	0	32545	
1665	0	32533	
1666	0	32463	
1667	0	32494	
1668	0	32420	
1669	0	32320	
1670	0	32330	
1671	0	32331	
1672	0	32301	
1673	0	32325	
1674	0	32287	
1675	0	32309	
1676	0	32305	
1677	0	32315	
1678	0	32340	
1679	0	32332	
1680	0	32273	
1681	0	32235	
1682	0	32245	
1683	0	32267	
1684	0	32281	
1685	0	32178	
1686	0	32156	
1687	0	32112	
1688	0	32056	
1689	0	32097	
1690	0	32095	
1691	0	32175	
1692	0	32197	
1693	0	32104	
1694	0	32165	
1695	0	31991	
1696	0	31919	
1697	0	31981	
1698	0	31926	
1699	0	31871	
1700	0	31926	
1701	0	31995	
1702	0	31983	
1703	0	32015	
1704	0	31975	
1705	0	31981	
1706	0	31985	
1707	0	32015	
1708	0	32067	
1709	0	32081	
1710	0	32061	
1711	0	32109	
1712	0	32137	
1713	0	32093	
1714	0	32039	
1715	0	32024	
1716	0	32097	
1717	0	32093	
1718	0	32077	
1719	0	32029	
1720	0	32069	
1721	0	32108	
1722	0	32117	
1723	0	32016	
1724	0	32017	
1725	0	32069	
1726	0	32031	
1727	0	31981	
1728	0	32007	
1729	0	32031	
1730	0	32028	
1731	0	32089	
1732	0	32064	
1733	0	32117	
1734	0	32131	
1735	0	32076	
1736	0	32064	
1737	0	31940	
1738	0	31903	
1739	0	31900	
1740	0	31928	
1741	0	32045	
1742	0	32121	
1743	0	32123	
1744	0	32161	
1745	0	32180	
1746	0	32164	
1747	0	32135	
1748	0	32093	
1749	0	32085	
1750	0	32051	
1751	0	32035	
1752	0	32092	
1753	0	32099	
1754	0	32065	
1755	0	32116	
1756	0	32125	
1757	0	32137	
1758	0	32069	
1759	0	31955	
1760	0	31972	
1761	0	31919	
1762	0	31919	
1763	0	31933	
1764	0	32019	
1765	0	32039	
1766	0	32039	
1767	0	31973	
1768	0	31973	
1769	0	31997	
1770	0	31909	
1771	0	31905	
1772	0	31960	
1773	0	31959	
1774	0	31991	
1775	0	31983	
1776	0	31931	
1777	0	32009	
1778	0	31956	
1779	0	31941	
1780	0	31955	
1781	0	31941	
1782	0	32037	
1783	0	31969	
1784	0	31973	
1785	0	31881	
1786	0	31893	
1787	0	31912	
1788	0	31783	
1789	0	31737	
1790	0	31781	
1791	0	31789	
1792	0	31809	
1793	0	31769	
1794	0	31798	
1795	0	31785	
1796	0	31751	
1797	0	31804	
1798	0	31849	
1799	0	31848	
1800	0	31815	
1801	0	31813	
1802	0	31861	
1803	0	31905	
1804	0	31953	
1805	0	31916	
1806	0	31841	
1807	0	31821	
1808	0	31810	
1809	0	31777	
1810	0	31769	
1811	0	31705	
1812	0	31685	
1813	0	31799	
1814	0	31762	
1815	0	31767	
1816	0	31809	
1817	0	31849	
1818	0	31865	
1819	0	31832	
1820	0	31805	
1821	0	31771	
1822	0	31813	
1823	0	31815	
1824	0	31763	
1825	0	31726	
1826	0	31709	
1827	0	31765	
1828	0	31825	
1829	0	31792	
1830	0	31756	
1831	0	31715	
1832	0	31742	
1833	0	31734	
1834	0	31719	
1835	0	31673	
1836	0	31667	
1837	0	31685	
1838	0	31733	
1839	0	31689	
1840	0	31681	
1841	0	31759	
1842	0	31693	
1843	0	31672	
1844	0	31693	
1845	0	31736	
1846	0	31730	
1847	0	31812	
1848	0	31769	
1849	0	31736	
1850	0	31693	
1851	0	31588	
1852	0	31556	
1853	0	31545	
1854	0	31561	
1855	0	31572	
1856	0	31683	
1857	0	31677	
1858	0	31689	
1859	0	31652	
1860	0	31671	
1861	0	31731	
1862	0	31766	
1863	0	31691	
1864	0	31700	
1865	0	31701	
1866	0	31737	
1867	0	31725	
1868	0	31745	
1869	0	31751	
1870	0	31703	
1871	0	31744	
1872	0	31651	
1873	0	31739	
1874	0	31648	
1875	0	31593	
1876	0	31619	
1877	0	31588	
1878	0	31557	
1879	0	31585	
1880	0	31585	
1881	0	31637	
1882	0	31659	
1883	0	31697	
1884	0	31701	
1885	0	31812	
1886	0	31857	
1887	0	31909	
1888	0	31993	
1889	0	31972	
1890	0	31985	
1891	0	31984	
1892	0	31985	
1893	0	31977	
1894	0	32036	
1895	0	32123	
1896	0	32113	
1897	0	32067	
1898	0	32153	
1899	0	32265	
1900	0	32201	
1901	0	32169	
1902	0	32129	
1903	0	32069	
1904	0	31996	
1905	0	31996	
1906	0	31983	
1907	0	32017	
1908	0	32037	
1909	0	32056	
1910	0	32059	
1911	0	32068	
1912	0	32060	
1913	0	32094	
1914	0	32057	
1915	0	32033	
1916	0	32033	
1917	0	32101	
1918	0	32029	
1919	0	32019	
1920	0	31959	
1921	0	31917	
1922	0	31903	
1923	0	31916	
1924	0	31907	
1925	0	31945	
1926	0	31941	
1927	0	31927	
1928	0	31908	
1929	0	31837	
1930	0	31911	
1931	0	31909	
1932	0	31973	
1933	0	31984	
1934	0	31951	
1935	0	31861	
1936	0	31911	
1937	0	31880	
1938	0	31916	
1939	0	31927	
1940	0	31784	
1941	0	31823	
1942	0	31805	
1943	0	31801	
1944	0	31741	
1945	0	31724	
1946	0	31641	
1947	0	31589	
1948	0	31537	
1949	0	31632	
1950	0	31672	
1951	0	31681	
1952	0	31816	
1953	0	31881	
1954	0	31885	
1955	0	31756	
1956	0	31721	
1957	0	31677	
1958	0	31709	
1959	0	31681	
1960	0	31693	
1961	0	31717	
1962	0	31724	
1963	0	31767	
1964	0	31871	
1965	0	31908	
1966	0	31811	
1967	0	31907	
1968	0	31891	
1969	0	31823	
1970	0	31826	
1971	0	31844	
1972	0	31905	
1973	0	31905	
1974	0	31873	
1975	0	31845	
1976	0	31856	
1977	0	31808	
1978	0	31805	
1979	0	31825	
1980	0	31839	
1981	0	31880	
1982	0	31817	
1983	0	31800	
1984	0	31811	
1985	0	31871	
1986	0	31813	
1987	0	31921	
1988	0	31895	
1989	0	31889	
1990	0	31976	
1991	0	31945	
1992	0	31909	
1993	0	31853	
1994	0	31930	
1995	0	31884	
1996	0	31835	
1997	0	31879	
1998	0	31843	
1999	0	31808	
2000	0	31741	
2001	0	31687	
2002	0	31724	
2003	0	31730	
2004	0	31733	
2005	0	31765	
2006	0	31695	
2007	0	31737	
2008	0	31759	
2009	0	31807	
2010	0	31857	
2011	0	31841	
2012	0	31841	
2013	0	31725	
2014	0	31624	
2015	0	31601	
2016	0	31567	
2017	0	31505	
2018	0	31531	
2019	0	31524	
2020	0	31596	
2021	0	31592	
2022	0	31561	
2023	0	31569	
2024	0	31605	
2025	0	31573	
2026	0	31553	
2027	0	31601	
2028	0	31627	
2029	0	31544	
2030	0	31583	
2031	0	31597	
2032	0	31693	
2033	0	31669	
2034	0	31709	
2035	0	31692	
2036	0	31664	
2037	0	31669	
2038	0	31701	
2039	0	31724	
2040	0	31745	
2041	0	31789	
2042	0	31788	
2043	0	31738	
2044	0	31732	
2045	0	31742	
2046	0	31816	
2047	0	31787	
2048	0	31664	
2049	0	31699	
2050	0	31709	
2051	0	31653	
2052	0	31647	
2053	0	31669	
2054	0	31663	
2055	0	31736	
2056	0	31777	
2057	0	31836	
2058	0	31833	
2059	0	31697	
2060	0	31652	
2061	0	31652	
2062	0	31624	
2063	0	31596	
2064	0	31660	
2065	0	31640	
2066	0	31647	
2067	0	31625	
2068	0	31664	
2069	0	31735	
2070	0	31757	
2071	0	31793	
2072	0	31765	
2073	0	31724	
2074	0	31617	
2075	0	31557	
2076	0	31553	
2077	0	31541	
2078	0	31513	
2079	0	31521	
2080	0	31585	
2081	0	31597	
2082	0	31651	
2083	0	31671	
2084	0	31732	
2085	0	31653	
2086	0	31588	
2087	0	31587	
2088	0	31577	
2089	0	31535	
2090	0	31615	
2091	0	31655	
2092	0	31613	
2093	0	31553	
2094	0	31543	
2095	0	31548	
2096	0	31383	
2097	0	31353	
2098	0	31329	
2099	0	31349	
2100	0	31381	
2101	0	31361	
2102	0	31377	
2103	0	31395	
2104	0	31351	
2105	0	31351	
2106	0	31295	
2107	0	31293	
2108	0	31327	
2109	0	31410	
2110	0	31461	
2111	0	31528	
2112	0	31513	
2113	0	31553	
2114	0	31571	
2115	0	31599	
2116	0	31657	
2117	0	31703	
2118	0	31665	
2119	0	31709	
2120	0	31641	
2121	0	31649	
2122	0	31635	
2123	0	31615	
2124	0	31615	
2125	0	31716	
2126	0	31805	
2127	0	31757	
2128	0	31750	
2129	0	31809	
2130	0	31777	
2131	0	31719	
2132	0	31780	
2133	0	31711	
2134	0	31753	
2135	0	31713	
2136	0	31797	
2137	0	31755	
2138	0	31728	
2139	0	31677	
2140	0	31621	
2141	0	31655	
2142	0	31676	
2143	0	31645	
2144	0	31617	
2145	0	31621	
2146	0	31641	
2147	0	31661	
2148	0	31649	
2149	0	31620	
2150	0	31585	
2151	0	31595	
2152	0	31668	
2153	0	31684	
2154	0	31805	
2155	0	31903	
2156	0	31882	
2157	0	31849	
2158	0	31857	
2159	0	31888	
2160	0	31837	
2161	0	31884	
2162	0	31879	
2163	0	31837	
2164	0	31825	
2165	0	31852	
2166	0	31827	
2167	0	31787	
2168	0	31720	
2169	0	31684	
2170	0	31607	
2171	0	31611	
2172	0	31627	
2173	0	31617	
2174	0	31687	
2175	0	31709	
2176	0	31740	
2177	0	31785	
2178	0	31780	
2179	0	31711	
2180	0	31713	
2181	0	31753	
2182	0	31730	
2183	0	31724	
2184	0	31679	
2185	0	31691	
2186	0	31681	
2187	0	31745	
2188	0	31759	
2189	0	31753	
2190	0	31703	
2191	0	31717	
2192	0	31725	
2193	0	31736	
2194	0	31732	
2195	0	31704	
2196	0	31777	
2197	0	31793	
2198	0	31773	
2199	0	31793	
2200	0	31788	
2201	0	31837	
2202	0	31815	
2203	0	31764	
2204	0	31818	
2205	0	31820	
2206	0	31800	
2207	0	31745	
2208	0	31735	
2209	0	31705	
2210	0	31749	
2211	0	31789	
2212	0	31813	
2213	0	31862	
2214	0	31812	
2215	0	31803	
2216	0	31736	
2217	0	31676	
2218	0	31663	
2219	0	31653	
2220	0	31656	
2221	0	31668	
2222	0	31688	
2223	0	31789	
2224	0	31881	
2225	0	31849	
2226	0	31833	
2227	0	31815	
2228	0	31815	
2229	0	31810	
2230	0	31778	
2231	0	31813	
2232	0	31751	
2233	0	31744	
2234	0	31769	
2235	0	31817	
2236	0	31791	
2237	0	31741	
2238	0	31700	
2239	0	31641	
2240	0	31647	
2241	0	31665	
2242	0	31695	
2243	0	31674	
2244	0	31691	
2245	0	31697	
2246	0	31725	
2247	0	31873	
2248	0	31838	
2249	0	31809	
2250	0	31741	
2251	0	31741	
2252	0	31731	
2253	0	31717	
2254	0	31748	
2255	0	31776	
2256	0	31731	
2257	0	31699	
2258	0	31717	
2259	0	31686	
2260	0	31648	
2261	0	31693	
2262	0	31693	
2263	0	31599	
2264	0	31620	
2265	0	31637	
2266	0	31663	
2267	0	31604	
2268	0	31601	
2269	0	31624	
2270	0	31665	
2271	0	31625	
2272	0	31524	
2273	0	31573	
2274	0	31613	
2275	0	31679	
2276	0	31705	
2277	0	31697	
2278	0	31624	
2279	0	31701	
2280	0	31751	
2281	0	31702	
2282	0	31679	
2283	0	31721	
2284	0	31800	
2285	0	31757	
2286	0	31775	
2287	0	31769	
2288	0	31728	
2289	0	31827	
2290	0	31741	
2291	0	31695	
2292	0	31632	
2293	0	31580	
2294	0	31613	
2295	0	31625	
2296	0	31614	
2297	0	31620	
2298	0	31652	
2299	0	31644	
2300	0	31723	
2301	0	31685	
2302	0	31729	
2303	0	31689	
2304	0	31643	
2305	0	31623	
2306	0	31585	
2307	0	31665	
2308	0	31669	
2309	0	31592	
2310	0	31560	
2311	0	31589	
2312	0	31631	
2313	0	31611	
2314	0	31616	
2315	0	31615	
2316	0	31709	
2317	0	31664	
2318	0	31753	
2319	0	31687	
2320	0	31681	
2321	0	31717	
2322	0	31633	
2323	0	31564	
2324	0	31549	
2325	0	31576	
2326	0	31599	
2327	0	31605	
2328	0	31617	
2329	0	31617	
2330	0	31741	
2331	0	31816	
2332	0	31703	
2333	0	31701	
2334	0	31732	
2335	0	31789	
2336	0	31847	
2337	0	31901	
2338	0	31899	
2339	0	31880	
2340	0	31909	
2341	0	31917	
2342	0	31909	
2343	0	31792	
2344	0	31785	
2345	0	31776	
2346	0	31806	
2347	0	31778	
2348	0	31741	
2349	0	31725	
2350	0	31707	
2351	0	31683	
2352	0	31620	
2353	0	31580	
2354	0	31569	
2355	0	31561	
2356	0	31615	
2357	0	31661	
2358	0	31629	
2359	0	31692	
2360	0	31604	
2361	0	31553	
2362	0	31565	
2363	0	31588	
2364	0	31557	
2365	0	31669	
2366	0	31679	
2367	0	31725	
2368	0	31673	
2369	0	31640	
2370	0	31689	
2371	0	31673	
2372	0	31677	
2373	0	31740	
2374	0	31724	
2375	0	31796	
2376	0	31840	
2377	0	31832	
2378	0	31895	
2379	0	31903	
2380	0	31813	
2381	0	31771	
2382	0	31828	
2383	0	31828	
2384	0	31769	
2385	0	31639	
2386	0	31615	
2387	0	31645	
2388	0	31721	
2389	0	31852	
2390	0	31841	
2391	0	31799	
2392	0	31775	
2393	0	31783	
2394	0	31736	
2395	0	31733	
2396	0	31665	
2397	0	31647	
2398	0	31612	
2399	0	31569	
2400	0	31581	
2401	0	31499	
2402	0	31401	
2403	0	31380	
2404	0	31393	
2405	0	31457	
2406	0	31528	
2407	0	31522	
2408	0	31505	
2409	0	31487	
2410	0	31477	
2411	0	31381	
2412	0	31431	
2413	0	31517	
2414	0	31440	
2415	0	31455	
2416	0	31529	
2417	0	31531	
2418	0	31448	
2419	0	31479	
2420	0	31487	
2421	0	31542	
2422	0	31605	
2423	0	31581	
2424	0	31608	
2425	0	31705	
2426	0	31765	
2427	0	31749	
2428	0	31747	
2429	0	31649	
2430	0	31609	
2431	0	31629	
2432	0	31637	
2433	0	31629	
2434	0	31613	
2435	0	31657	
2436	0	31721	
2437	0	31677	
2438	0	31609	
2439	0	31601	
2440	0	31528	
2441	0	31489	
2442	0	31469	
2443	0	31453	
2444	0	31501	
2445	0	31521	
2446	0	31525	
2447	0	31572	
2448	0	31556	
2449	0	31581	
2450	0	31581	
2451	0	31529	
2452	0	31624	
2453	0	31589	
2454	0	31596	
2455	0	31556	
2456	0	31607	
2457	0	31648	
2458	0	31595	
2459	0	31638	
2460	0	31666	
2461	0	31685	
2462	0	31603	
2463	0	31605	
2464	0	31549	
2465	0	31563	
2466	0	31543	
2467	0	31653	
2468	0	31649	
2469	0	31693	
2470	0	31641	
2471	0	31613	
2472	0	31607	
2473	0	31585	
2474	0	31604	
2475	0	31589	
2476	0	31551	
2477	0	31675	
2478	0	31653	
2479	0	31605	
2480	0	31633	
2481	0	31663	
2482	0	31699	
2483	0	31722	
2484	0	31613	
2485	0	31580	
2486	0	31564	
2487	0	31667	
2488	0	31707	
2489	0	31691	
2490	0	31619	
2491	0	31629	
2492	0	31619	
2493	0	31614	
2494	0	31700	
2495	0	31621	
2496	0	31555	
2497	0	31526	
2498	0	31547	
2499	0	31593	
2500	0	31557	
2501	0	31583	
2502	0	31597	
2503	0	31619	
2504	0	31611	
2505	0	31613	
2506	0	31645	
2507	0	31652	
2508	0	31595	
2509	0	31552	
2510	0	31537	
2511	0	31545	
2512	0	31489	
2513	0	31509	
2514	0	31460	
2515	0	31481	
2516	0	31497	
2517	0	31521	
2518	0	31516	
2519	0	31599	
2520	0	31557	
2521	0	31596	
2522	0	31703	
2523	0	31713	
2524	0	31720	
2525	0	31684	
2526	0	31748	
2527	0	31749	
2528	0	31704	
2529	0	31698	
2530	0	31681	
2531	0	31690	
2532	0	31735	
2533	0	31709	
2534	0	31611	
2535	0	31587	
2536	0	31593	
2537	0	31566	
2538	0	31617	
2539	0	31649	
2540	0	31669	
2541	0	31725	
2542	0	31719	
2543	0	31717	
2544	0	31721	
2545	0	31739	
2546	0	31786	
2547	0	31689	
2548	0	31684	
2549	0	31652	
2550	0	31719	
2551	0	31669	
2552	0	31705	
2553	0	31696	
2554	0	31685	
2555	0	31709	
2556	0	31668	
2557	0	31589	
2558	0	31664	
2559	0	31632	
2560	0	31633	
2561	0	31683	
2562	0	31693	
2563	0	31777	
2564	0	31729	
2565	0	31664	
2566	0	31732	
2567	0	31727	
2568	0	31800	
2569	0	31830	
2570	0	31849	
2571	0	31849	
2572	0	31804	
2573	0	31853	
2574	0	31856	
2575	0	31857	
2576	0	31901	
2577	0	31892	
2578	0	31931	
2579	0	31989	
2580	0	31991	
2581	0	32015	
2582	0	32000	
2583	0	31883	
2584	0	31841	
2585	0	31827	
2586	0	31753	
2587	0	31737	
2588	0	31757	
2589	0	31793	
2590	0	31885	
2591	0	31960	
2592	0	31963	
2593	0	31924	
2594	0	31895	
2595	0	31905	
2596	0	31876	
2597	0	31796	
2598	0	31801	
2599	0	31855	
2600	0	31844	
2601	0	31877	
2602	0	31890	
2603	0	31861	
2604	0	31916	
2605	0	31880	
2606	0	31913	
2607	0	31957	
2608	0	31855	
2609	0	31801	
2610	0	31751	
2611	0	31737	
2612	0	31692	
2613	0	31656	
2614	0	31669	
2615	0	31745	
2616	0	31794	
2617	0	31676	
2618	0	31648	
2619	0	31573	
2620	0	31681	
2621	0	31765	
2622	0	31809	
2623	0	31793	
2624	0	31789	
2625	0	31831	
2626	0	31829	
2627	0	31805	
2628	0	31789	
2629	0	31772	
2630	0	31755	
2631	0	31700	
2632	0	31713	
2633	0	31743	
2634	0	31772	
2635	0	31776	
2636	0	31801	
2637	0	31785	
2638	0	31751	
2639	0	31710	
2640	0	31733	
2641	0	31797	
2642	0	31837	
2643	0	31850	
2644	0	31915	
2645	0	31932	
2646	0	31993	
2647	0	31946	
2648	0	32036	
2649	0	32047	
2650	0	31993	
2651	0	31941	
2652	0	31925	
2653	0	32005	
2654	0	32008	
2655	0	31965	
2656	0	32001	
2657	0	32045	
2658	0	32033	
2659	0	32003	
2660	0	32039	
2661	0	32049	
2662	0	32041	
2663	0	31932	
2664	0	31971	
2665	0	31992	
2666	0	32005	
2667	0	32037	
2668	0	32136	
2669	0	32112	
2670	0	32153	
2671	0	32143	
2672	0	32080	
2673	0	32075	
2674	0	32089	
2675	0	32117	
2676	0	32073	
2677	0	32005	
2678	0	32040	
2679	0	32070	
2680	0	32097	
2681	0	32165	
2682	0	32193	
2683	0	32220	
2684	0	32240	
2685	0	32180	
2686	0	32165	
2687	0	32103	
2688	0	32093	
2689	0	32109	
2690	0	32224	
2691	0	32187	
2692	0	32243	
2693	0	32225	
2694	0	32227	
2695	0	32255	
2696	0	32287	
2697	0	32194	
2698	0	32172	
2699	0	32165	
2700	0	32197	
2701	0	32227	
2702	0	32153	
2703	0	32115	
2704	0	32223	
2705	0	32301	
2706	0	32275	
2707	0	32285	
2708	0	32401	
2709	0	32324	
2710	0	32297	
2711	0	32192	
2712	0	32207	
2713	0	32109	
2714	0	32145	
2715	0	32136	
2716	0	32194	
2717	0	32233	
2718	0	32217	
2719	0	32181	
2720	0	32209	
2721	0	32201	
2722	0	32185	
2723	0	32204	
2724	0	32197	
2725	0	32145	
2726	0	32105	
2727	0	32103	
2728	0	32115	
2729	0	32161	
2730	0	32173	
2731	0	32176	
2732	0	32188	
2733	0	32188	
2734	0	32201	
2735	0	32051	
2736	0	31964	
2737	0	31966	
2738	0	31870	
2739	0	31897	
2740	0	31924	
2741	0	31857	
2742	0	31937	
2743	0	31992	
2744	0	32057	
2745	0	32031	
2746	0	32141	
2747	0	32127	
2748	0	32073	
2749	0	32057	
2750	0	32020	
2751	0	31912	
2752	0	31865	
2753	0	31873	
2754	0	31933	
2755	0	31901	
2756	0	31981	
2757	0	31993	
2758	0	31955	
2759	0	31910	
2760	0	31973	
2761	0	31959	
2762	0	31972	
2763	0	31940	
2764	0	31983	
2765	0	31999	
2766	0	32049	
2767	0	32097	
2768	0	32069	
2769	0	32065	
2770	0	32053	
2771	0	32068	
2772	0	32073	
2773	0	32063	
2774	0	31997	
2775	0	32002	
2776	0	32053	
2777	0	32081	
2778	0	32091	
2779	0	32099	
2780	0	32093	
2781	0	32053	
2782	0	32031	
2783	0	32025	
2784	0	32007	
2785	0	31965	
2786	0	31940	
2787	0	32005	
2788	0	31969	
2789	0	32009	
2790	0	31975	
2791	0	31994	
2792	0	31936	
2793	0	31965	
2794	0	31967	
2795	0	31877	
2796	0	31865	
2797	0	31903	
2798	0	31999	
2799	0	32007	
2800	0	32082	
2801	0	32120	
2802	0	32111	
2803	0	32093	
2804	0	32039	
2805	0	31967	
2806	0	31885	
2807	0	31921	
2808	0	31949	
2809	0	32032	
2810	0	32012	
2811	0	32049	
2812	0	31969	
2813	0	31989	
2814	0	31961	
2815	0	32073	
2816	0	32029	
2817	0	31997	
2818	0	31957	
2819	0	31937	
2820	0	31994	
2821	0	31948	
2822	0	32084	
2823	0	32165	
2824	0	32129	
2825	0	32185	
2826	0	32105	
2827	0	32101	
2828	0	32092	
2829	0	32089	
2830	0	32135	
2831	0	32183	
2832	0	32181	
2833	0	32215	
2834	0	32176	
2835	0	32167	
2836	0	32070	
2837	0	32076	
2838	0	32024	
2839	0	32016	
2840	0	32021	
2841	0	32125	
2842	0	32116	
2843	0	32149	
2844	0	32161	
2845	0	32027	
2846	0	31991	
2847	0	32005	
2848	0	31972	
2849	0	32044	
2850	0	31984	
2851	0	32039	
2852	0	32140	
2853	0	32255	
2854	0	32287	
2855	0	32267	
2856	0	32337	
2857	0	32355	
2858	0	32405	
2859	0	32495	
2860	0	32444	
2861	0	32500	
2862	0	32601	
2863	0	32617	
2864	0	32606	
2865	0	32673	
2866	0	32724	
2867	0	32677	
2868	0	32725	
2869	0	32724	
2870	0	32787	
2871	0	32860	
2872	0	32929	
2873	0	32969	
2874	0	32993	
2875	0	32992	
2876	0	32932	
2877	0	32916	
2878	0	32849	
2879	0	32803	
2880	0	32759	
2881	0	32757	
2882	0	32724	
2883	0	32759	
2884	0	32761	
2885	0	32701	
2886	0	32727	
2887	0	32772	
2888	0	32673	
2889	0	32629	
2890	0	32561	
2891	0	32529	
2892	0	32528	
2893	0	32447	
2894	0	32361	
2895	0	32321	
2896	0	32313	
2897	0	32251	
2898	0	32329	
2899	0	32312	
2900	0	32308	
2901	0	32343	
2902	0	32309	
2903	0	32328	
2904	0	32313	
2905	0	32317	
2906	0	32380	
2907	0	32425	
2908	0	32484	
2909	0	32461	
2910	0	32423	
2911	0	32413	
2912	0	32415	
2913	0	32429	
2914	0	32391	
2915	0	32366	
2916	0	32368	
2917	0	32493	
2918	0	32409	
2919	0	32353	
2920	0	32249	
2921	0	32281	
2922	0	32321	
2923	0	32287	
2924	0	32359	
2925	0	32401	
2926	0	32325	
2927	0	32357	
2928	0	32293	
2929	0	32268	
2930	0	32269	
2931	0	32289	
2932	0	32409	
2933	0	32433	
2934	0	32439	
2935	0	32465	
2936	0	32457	
2937	0	32469	
2938	0	32513	
2939	0	32529	
2940	0	32577	
2941	0	32485	
2942	0	32437	
2943	0	32389	
2944	0	32414	
2945	0	32411	
2946	0	32477	
2947	0	32479	
2948	0	32403	
2949	0	32453	
2950	0	32441	
2951	0	32527	
2952	0	32479	
2953	0	32449	
2954	0	32573	
2955	0	32585	
2956	0	32581	
2957	0	32613	
2958	0	32561	
2959	0	32479	
2960	0	32435	
2961	0	32487	
2962	0	32440	
2963	0	32445	
2964	0	32428	
2965	0	32344	
2966	0	32327	
2967	0	32327	
2968	0	32369	
2969	0	32353	
2970	0	32313	
2971	0	32349	
2972	0	32405	
2973	0	32405	
2974	0	32444	
2975	0	32461	
2976	0	32473	
2977	0	32423	
2978	0	32395	
2979	0	32344	
2980	0	32371	
2981	0	32361	
2982	0	32361	
2983	0	32380	
2984	0	32317	
2985	0	32312	
2986	0	32252	
2987	0	32284	
2988	0	32273	
2989	0	32256	
2990	0	32248	
2991	0	32249	
2992	0	32197	
2993	0	32279	
2994	0	32225	
2995	0	32208	
2996	0	32209	
2997	0	32289	
2998	0	32279	
2999	0	32281	
3000	0	32281	
3001	0	32241	
3002	0	32377	
3003	0	32361	
3004	0	32357	
3005	0	32361	
3006	0	32349	
3007	0	32372	
3008	0	32321	
3009	0	32252	
3010	0	32288	
3011	0	32273	
3012	0	32309	
3013	0	32329	
3014	0	32317	
3015	0	32287	
3016	0	32261	
3017	0	32269	
3018	0	32304	
3019	0	32351	
3020	0	32407	
3021	0	32468	
3022	0	32413	
3023	0	32413	
3024	0	32496	
3025	0	32437	
3026	0	32477	
3027	0	32509	
3028	0	32587	
3029	0	32613	
3030	0	32713	
3031	0	32755	
3032	0	32729	
3033	0	32693	
3034	0	32673	
3035	0	32577	
3036	0	32533	
3037	0	32504	
3038	0	32577	
3039	0	32609	
3040	0	32591	
3041	0	32501	
3042	0	32481	
3043	0	32504	
3044	0	32492	
3045	0	32467	
3046	0	32375	
3047	0	32323	
3048	0	32265	
3049	0	32263	
3050	0	32324	
3051	0	32315	
3052	0	32329	
3053	0	32374	
3054	0	32302	
3055	0	32267	
3056	0	32245	
3057	0	32281	
3058	0	32246	
3059	0	32175	
3060	0	32157	
3061	0	32128	
3062	0	32156	
3063	0	32164	
3064	0	32213	
3065	0	32232	
3066	0	32241	
3067	0	32164	
3068	0	32117	
3069	0	32144	
3070	0	32113	
3071	0	32073	
3072	0	31920	
3073	0	31995	
3074	0	32009	
3075	0	32007	
3076	0	32048	
3077	0	32076	
3078	0	32087	
3079	0	32155	
3080	0	32097	
3081	0	32109	
3082	0	32100	
3083	0	32133	
3084	0	32149	
3085	0	32249	
3086	0	32253	
3087	0	32263	
3088	0	32344	
3089	0	32383	
3090	0	32397	
3091	0	32287	
3092	0	32295	
3093	0	32381	
3094	0	32364	
3095	0	32429	
3096	0	32487	
3097	0	32492	
3098	0	32468	
3099	0	32501	
3100	0	32585	
3101	0	32653	
3102	0	32624	
3103	0	32595	
3104	0	32489	
3105	0	32436	
3106	0	32492	
3107	0	32559	
3108	0	32623	
3109	0	32669	
3110	0	32731	
3111	0	32709	
3112	0	32740	
3113	0	32777	
3114	0	32805	
3115	0	32881	
3116	0	32841	
3117	0	32873	
3118	0	32944	
3119	0	33079	
3120	0	33005	
3121	0	32911	
3122	0	32884	
3123	0	32917	
3124	0	32841	
3125	0	32813	
3126	0	32927	
3127	0	32895	
3128	0	32921	
3129	0	32965	
3130	0	32947	
3131	0	32858	
3132	0	32856	
3133	0	32775	
3134	0	32705	
3135	0	32743	
3136	0	32729	
3137	0	32865	
3138	0	32827	
3139	0	32721	
3140	0	32778	
3141	0	32833	
3142	0	32825	
3143	0	32901	
3144	0	32883	
3145	0	32861	
3146	0	32812	
3147	0	32837	
3148	0	32801	
3149	0	32787	
3150	0	32751	
3151	0	32737	
3152	0	32679	
3153	0	32725	
3154	0	32696	
3155	0	32737	
3156	0	32756	
3157	0	32779	
3158	0	32741	
3159	0	32781	
3160	0	32739	
3161	0	32681	
3162	0	32625	
3163	0	32667	
3164	0	32712	
3165	0	32736	
3166	0	32769	
3167	0	32775	
3168	0	32795	
3169	0	32792	
3170	0	32779	
3171	0	32717	
3172	0	32797	
3173	0	32733	
3174	0	32681	
3175	0	32695	
3176	0	32717	
3177	0	32715	
3178	0	32705	
3179	0	32724	
3180	0	32637	
3181	0	32565	
3182	0	32497	
3183	0	32493	
3184	0	32509	
3185	0	32524	
3186	0	32609	
3187	0	32724	
3188	0	32713	
3189	0	32741	
3190	0	32709	
3191	0	32697	
3192	0	32728	
3193	0	32757	
3194	0	32831	
3195	0	32831	
3196	0	32846	
3197	0	32865	
3198	0	32837	
3199	0	32860	
3200	0	32848	
3201	0	32801	
3202	0	32772	
3203	0	32732	
3204	0	32689	
3205	0	32719	
3206	0	32763	
3207	0	32813	
3208	0	32789	
3209	0	32737	
3210	0	32809	
3211	0	32743	
3212	0	32693	
3213	0	32732	
3214	0	32685	
3215	0	32713	
3216	0	32791	
3217	0	32816	
3218	0	32844	
3219	0	32905	
3220	0	32845	
3221	0	32745	
3222	0	32629	
3223	0	32517	
3224	0	32509	
3225	0	32365	
3226	0	32453	
3227	0	32481	
3228	0	32492	
3229	0	32525	
3230	0	32565	
3231	0	32564	
3232	0	32532	
3233	0	32559	
3234	0	32581	
3235	0	32557	
3236	0	32609	
3237	0	32625	
3238	0	32707	
3239	0	32759	
3240	0	32837	
3241	0	32859	
3242	0	32856	
3243	0	32760	
3244	0	32733	
3245	0	32701	
3246	0	32783	
3247	0	32747	
3248	0	32781	
3249	0	32791	
3250	0	32757	
3251	0	32873	
3252	0	32849	
3253	0	32820	
3254	0	32891	
3255	0	32897	
3256	0	32901	
3257	0	32952	
3258	0	32887	
3259	0	32885	
3260	0	32914	
3261	0	32946	
3262	0	32833	
3263	0	32817	
3264	0	32837	
3265	0	32843	
3266	0	32912	
3267	0	32821	
3268	0	32867	
3269	0	32897	
3270	0	33005	
3271	0	33070	
3272	0	33035	
3273	0	33057	
3274	0	33088	
3275	0	33044	
3276	0	33069	
3277	0	33157	
3278	0	33153	
3279	0	33159	
3280	0	33084	
3281	0	33137	
3282	0	33093	
3283	0	33104	
3284	0	33024	
3285	0	33049	
3286	0	33079	
3287	0	33129	
3288	0	33173	
3289	0	33139	
3290	0	33173	
3291	0	33113	
3292	0	33151	
3293	0	33037	
3294	0	33101	
3295	0	33044	
3296	0	33127	
3297	0	33009	
3298	0	33048	
3299	0	33055	
3300	0	33024	
3301	0	33004	
3302	0	32977	
3303	0	33025	
3304	0	33057	
3305	0	33065	
3306	0	33044	
3307	0	33029	
3308	0	33048	
3309	0	32969	
3310	0	32903	
3311	0	32921	
3312	0	32933	
3313	0	32947	
3314	0	32989	
3315	0	32999	
3316	0	32897	
3317	0	32925	
3318	0	32889	
3319	0	32943	
3320	0	32941	
3321	0	32949	
3322	0	32997	
3323	0	33073	
3324	0	33039	
3325	0	33040	
3326	0	33052	
3327	0	32941	
3328	0	32921	
3329	0	32852	
3330	0	32821	
3331	0	32813	
3332	0	32768	
3333	0	32780	
3334	0	32749	
3335	0	32714	
3336	0	32717	
3337	0	32745	
3338	0	32836	
3339	0	32847	
3340	0	32788	
3341	0	32761	
3342	0	32758	
3343	0	32871	
3344	0	32883	
3345	0	32841	
3346	0	32809	
3347	0	32788	
3348	0	32765	
3349	0	32692	
3350	0	32725	
3351	0	32753	
3352	0	32724	
3353	0	32761	
3354	0	32774	
3355	0	32783	
3356	0	32636	
3357	0	32656	
3358	0	32613	
3359	0	32517	
3360	0	32540	
3361	0	32509	
3362	0	32523	
3363	0	32565	
3364	0	32529	
3365	0	32553	
3366	0	32506	
3367	0	32536	
3368	0	32511	
3369	0	32388	
3370	0	32341	
3371	0	32385	
3372	0	32401	
3373	0	32359	
3374	0	32409	
3375	0	32477	
3376	0	32543	
3377	0	32517	
3378	0	32543	
3379	0	32581	
3380	0	32601	
3381	0	32555	
3382	0	32479	
3383	0	32469	
3384	0	32545	
3385	0	32564	
3386	0	32572	
3387	0	32627	
3388	0	32593	
3389	0	32473	
3390	0	32488	
3391	0	32465	
3392	0	32448	
3393	0	32527	
3394	0	32605	
3395	0	32621	
3396	0	32660	
3397	0	32655	
3398	0	32665	
3399	0	32655	
3400	0	32664	
3401	0	32581	
3402	0	32635	
3403	0	32721	
3404	0	32777	
3405	0	32751	
3406	0	32711	
3407	0	32743	
3408	0	32793	
3409	0	32833	
3410	0	32945	
3411	0	32993	
3412	0	32961	
3413	0	32837	
3414	0	32821	
3415	0	32877	
3416	0	32871	
3417	0	32932	
3418	0	32933	
3419	0	32857	
3420	0	32879	
3421	0	32917	
3422	0	32980	
3423	0	32987	
3424	0	32936	
3425	0	32953	
3426	0	32973	
3427	0	33021	
3428	0	33023	
3429	0	33095	
3430	0	33093	
3431	0	33050	
3432	0	32996	
3433	0	32972	
3434	0	32978	
3435	0	32917	
3436	0	32944	
3437	0	32988	
3438	0	32987	
3439	0	32939	
3440	0	32972	
3441	0	32993	
3442	0	33036	
3443	0	32980	
3444	0	32929	
3445	0	32928	
3446	0	32884	
3447	0	32777	
3448	0	32633	
3449	0	32661	
3450	0	32621	
3451	0	32543	
3452	0	32605	
3453	0	32596	
3454	0	32589	
3455	0	32653	
3456	0	32669	
3457	0	32597	
3458	0	32651	
3459	0	32644	
3460	0	32604	
3461	0	32635	
3462	0	32645	
3463	0	32597	
3464	0	32700	
3465	0	32665	
3466	0	32708	
3467	0	32733	
3468	0	32677	
3469	0	32676	
3470	0	32659	
3471	0	32708	
3472	0	32773	
3473	0	32728	
3474	0	32771	
3475	0	32691	
3476	0	32733	
3477	0	32718	
3478	0	32687	
3479	0	32680	
3480	0	32684	
3481	0	32645	
3482	0	32729	
3483	0	32852	
3484	0	32865	
3485	0	32833	
3486	0	32837	
3487	0	32827	
3488	0	32824	
3489	0	32837	
3490	0	32823	
3491	0	32900	
3492	0	32917	
3493	0	32845	
3494	0	32816	
3495	0	32848	
3496	0	32885	
3497	0	32876	
3498	0	32863	
3499	0	32849	
3500	0	32841	
3501	0	32761	
3502	0	32703	
3503	0	32729	
3504	0	32676	
3505	0	32658	
3506	0	32649	
3507	0	32655	
3508	0	32623	
3509	0	32668	
3510	0	32721	
3511	0	32709	
3512	0	32691	
3513	0	32673	
3514	0	32764	
3515	0	32801	
3516	0	32737	
3517	0	32749	
3518	0	32684	
3519	0	32601	
3520	0	32621	
3521	0	32584	
3522	0	32567	
3523	0	32537	
3524	0	32520	
3525	0	32553	
3526	0	32593	
3527	0	32605	
3528	0	32654	
3529	0	32657	
3530	0	32673	
3531	0	32624	
3532	0	32623	
3533	0	32581	
3534	0	32553	
3535	0	32631	
3536	0	32622	
3537	0	32599	
3538	0	32541	
3539	0	32532	
3540	0	32527	
3541	0	32549	
3542	0	32533	
3543	0	32479	
3544	0	32461	
3545	0	32525	
3546	0	32649	
3547	0	32613	
3548	0	32623	
3549	0	32613	
3550	0	32597	
3551	0	32596	
3552	0	32545	
3553	0	32547	
3554	0	32588	
3555	0	32641	
3556	0	32689	
3557	0	32725	
3558	0	32718	
3559	0	32847	
3560	0	32811	
3561	0	32829	
3562	0	32876	
3563	0	32923	
3564	0	32978	
3565	0	32935	
3566	0	32929	
3567	0	32976	
3568	0	32965	
3569	0	32900	
3570	0	32809	
3571	0	32780	
3572	0	32753	
3573	0	32753	
3574	0	32783	
3575	0	32813	
3576	0	32827	
3577	0	32813	
3578	0	32820	
3579	0	32806	
3580	0	32813	
3581	0	32836	
3582	0	32848	
3583	0	32848	
3584	0	32802	
3585	0	32817	
3586	0	32805	
3587	0	32743	
3588	0	32849	
3589	0	32780	
3590	0	32777	
3591	0	32846	
3592	0	32861	
3593	0	32831	
3594	0	32793	
3595	0	32791	
3596	0	32825	
3597	0	32809	
3598	0	32800	
3599	0	32791	
3600	0	32721	
3601	0	32736	
3602	0	32737	
3603	0	32705	
3604	0	32674	
3605	0	32717	
3606	0	32717	
3607	0	32687	
3608	0	32721	
3609	0	32697	
3610	0	32641	
3611	0	32663	
3612	0	32718	
3613	0	32757	
3614	0	32661	
3615	0	32649	
3616	0	32505	
3617	0	32652	
3618	0	32735	
3619	0	32767	
3620	0	32764	
3621	0	32828	
3622	0	32773	
3623	0	32825	
3624	0	32772	
3625	0	32773	
3626	0	32743	
3627	0	32725	
3628	0	32668	
3629	0	32662	
3630	0	32588	
3631	0	32597	
3632	0	32650	
3633	0	32676	
3634	0	32701	
3635	0	32835	
3636	0	32892	
3637	0	32908	
3638	0	32935	
3639	0	32833	
3640	0	32769	
3641	0	32752	
3642	0	32791	
3643	0	32817	
3644	0	32797	
3645	0	32873	
3646	0	32881	
3647	0	32788	
3648	0	32781	
3649	0	32805	
3650	0	32844	
3651	0	32787	
3652	0	32788	
3653	0	32797	
3654	0	32844	
3655	0	32833	
3656	0	32827	
3657	0	32809	
3658	0	32835	
3659	0	32857	
3660	0	32825	
3661	0	32837	
3662	0	32847	
3663	0	32789	
3664	0	32797	
3665	0	32793	
3666	0	32861	
3667	0	32796	
3668	0	32865	
3669	0	32927	
3670	0	32861	
3671	0	32884	
3672	0	32855	
3673	0	32813	
3674	0	32885	
3675	0	32857	
3676	0	32788	
3677	0	32809	
3678	0	32874	
3679	0	32881	
3680	0	32873	
3681	0	32965	
3682	0	32913	
3683	0	32943	
3684	0	32863	
3685	0	32805	
3686	0	32768	
3687	0	32781	
3688	0	32779	
3689	0	32732	
3690	0	32744	
3691	0	32781	
3692	0	32805	
3693	0	32815	
3694	0	32780	
3695	0	32733	
3696	0	32729	
3697	0	32743	
3698	0	32751	
3699	0	32741	
3700	0	32707	
3701	0	32657	
3702	0	32711	
3703	0	32704	
3704	0	32704	
3705	0	32696	
3706	0	32627	
3707	0	32637	
3708	0	32657	
3709	0	32637	
3710	0	32691	
3711	0	32640	
3712	0	32614	
3713	0	32593	
3714	0	32596	
3715	0	32613	
3716	0	32577	
3717	0	32545	
3718	0	32521	
3719	0	32599	
3720	0	32615	
3721	0	32629	
3722	0	32609	
3723	0	32656	
3724	0	32608	
3725	0	32662	
3726	0	32745	
3727	0	32744	
3728	0	32846	
3729	0	32863	
3730	0	32785	
3731	0	32833	
3732	0	32725	
3733	0	32756	
3734	0	32745	
3735	0	32725	
3736	0	32720	
3737	0	32745	
3738	0	32751	
3739	0	32773	
3740	0	32825	
3741	0	32828	
3742	0	32805	
3743	0	32801	
3744	0	32713	
3745	0	32737	
3746	0	32802	
3747	0	32753	
3748	0	32793	
3749	0	32848	
3750	0	32740	
3751	0	32767	
3752	0	32645	
3753	0	32660	
3754	0	32673	
3755	0	32733	
3756	0	32699	
3757	0	32760	
3758	0	32790	
3759	0	32739	
3760	0	32735	
3761	0	32743	
3762	0	32741	
3763	0	32689	
3764	0	32632	
3765	0	32509	
3766	0	32545	
3767	0	32517	
3768	0	32679	
3769	0	32732	
3770	0	32719	
3771	0	32716	
3772	0	32753	
3773	0	32772	
3774	0	32729	
3775	0	32700	
3776	0	32659	
3777	0	32685	
3778	0	32729	
3779	0	32674	
3780	0	32637	
3781	0	32631	
3782	0	32707	
3783	0	32693	
3784	0	32633	
3785	0	32597	
3786	0	32623	
3787	0	32656	
3788	0	32701	
3789	0	32673	
3790	0	32704	
3791	0	32661	
3792	0	32607	
3793	0	32671	
3794	0	32688	
3795	0	32751	
3796	0	32745	
3797	0	32708	
3798	0	32685	
3799	0	32605	
3800	0	32639	
3801	0	32632	
3802	0	32597	
3803	0	32613	
3804	0	32564	
3805	0	32549	
3806	0	32604	
3807	0	32609	
3808	0	32709	
3809	0	32849	
3810	0	32929	
3811	0	32953	
3812	0	32948	
3813	0	32997	
3814	0	33026	
3815	0	32993	
3816	0	32965	
3817	0	32976	
3818	0	32908	
3819	0	32901	
3820	0	32975	
3821	0	33004	
3822	0	33016	
3823	0	32986	
3824	0	33025	
3825	0	33013	
3826	0	32961	
3827	0	33055	
3828	0	33105	
3829	0	33179	
3830	0	33165	
3831	0	33116	
3832	0	33089	
3833	0	33060	
3834	0	33065	
3835	0	33047	
3836	0	33025	
3837	0	33028	
3838	0	33009	
3839	0	32864	
3840	0	32899	
3841	0	32901	
3842	0	32913	
3843	0	32785	
3844	0	32859	
3845	0	32839	
3846	0	32820	
3847	0	32748	
3848	0	32719	
3849	0	32720	
3850	0	32749	
3851	0	32801	
3852	0	32771	
3853	0	32752	
3854	0	32697	
3855	0	32656	
3856	0	32589	
3857	0	32541	
3858	0	32577	
3859	0	32617	
3860	0	32625	
3861	0	32634	
3862	0	32599	
3863	0	32637	
3864	0	32643	
3865	0	32695	
3866	0	32701	
3867	0	32653	
3868	0	32671	
3869	0	32865	
3870	0	32829	
3871	0	32820	
3872	0	32873	
3873	0	32967	
3874	0	32985	
3875	0	33062	
3876	0	33101	
3877	0	33115	
3878	0	33042	
3879	0	33087	
3880	0	33089	
3881	0	32975	
3882	0	32980	
3883	0	33105	
3884	0	33117	
3885	0	33160	
3886	0	33169	
3887	0	33105	
3888	0	33064	
3889	0	33081	
3890	0	33014	
3891	0	33024	
3892	0	32937	
3893	0	32885	
3894	0	32837	
3895	0	32839	
3896	0	32729	
3897	0	32705	
3898	0	32724	
3899	0	32725	
3900	0	32675	
3901	0	32623	
3902	0	32692	
3903	0	32653	
3904	0	32699	
3905	0	32681	
3906	0	32751	
3907	0	32853	
3908	0	32827	
3909	0	32826	
3910	0	32791	
3911	0	32769	
3912	0	32833	
3913	0	32857	
3914	0	32813	
3915	0	32770	
3916	0	32735	
3917	0	32740	
3918	0	32736	
3919	0	32744	
3920	0	32799	
3921	0	32885	
3922	0	32913	
3923	0	32949	
3924	0	32932	
3925	0	32838	
3926	0	32774	
3927	0	32708	
3928	0	32677	
3929	0	32729	
3930	0	32713	
3931	0	32773	
3932	0	32752	
3933	0	32740	
3934	0	32716	
3935	0	32749	
3936	0	32724	
3937	0	32825	
3938	0	32760	
3939	0	32785	
3940	0	32741	
3941	0	32705	
3942	0	32685	
3943	0	32725	
3944	0	32652	
3945	0	32613	
3946	0	32559	
3947	0	32431	
3948	0	32448	
3949	0	32383	
3950	0	32441	
3951	0	32476	
3952	0	32457	
3953	0	32456	
3954	0	32531	
3955	0	32529	
3956	0	32501	
3957	0	32445	
3958	0	32451	
3959	0	32357	
3960	0	32324	
3961	0	32257	
3962	0	32293	
3963	0	32325	
3964	0	32365	
3965	0	32396	
3966	0	32367	
3967	0	32469	
3968	0	32421	
3969	0	32351	
3970	0	32304	
3971	0	32273	
3972	0	32332	
3973	0	32321	
3974	0	32295	
3975	0	32301	
3976	0	32257	
3977	0	32321	
3978	0	32343	
3979	0	32356	
3980	0	32444	
3981	0	32513	
3982	0	32501	
3983	0	32364	
3984	0	32345	
3985	0	32301	
3986	0	32315	
3987	0	32377	
3988	0	32289	
3989	0	32277	
3990	0	32228	
3991	0	32291	
3992	0	32341	
3993	0	32321	
3994	0	32297	
3995	0	32228	
3996	0	32269	
3997	0	32307	
3998	0	32261	
3999	0	32244	
4000	0	32284	
4001	0	32307	
4002	0	32199	
4003	0	32224	
4004	0	32279	
4005	0	32272	
4006	0	32303	
4007	0	32395	
4008	0	32321	
4009	0	32463	
4010	0	32440	
4011	0	32445	
4012	0	32428	
4013	0	32471	
4014	0	32476	
4015	0	32413	
4016	0	32405	
4017	0	32445	
4018	0	32440	
4019	0	32359	
4020	0	32365	
4021	0	32385	
4022	0	32388	
4023	0	32443	
4024	0	32395	
4025	0	32325	
4026	0	32292	
4027	0	32311	
4028	0	32361	
4029	0	32381	
4030	0	32403	
4031	0	32399	
4032	0	32319	
4033	0	32341	
4034	0	32259	
4035	0	32189	
4036	0	32184	
4037	0	32276	
4038	0	32319	
4039	0	32375	
4040	0	32385	
4041	0	32423	
4042	0	32471	
4043	0	32480	
4044	0	32521	
4045	0	32423	
4046	0	32468	
4047	0	32466	
4048	0	32465	
4049	0	32365	
4050	0	32370	
4051	0	32413	
4052	0	32413	
4053	0	32345	
4054	0	32389	
4055	0	32421	
4056	0	32396	
4057	0	32381	
4058	0	32436	
4059	0	32425	
4060	0	32476	
4061	0	32527	
4062	0	32503	
4063	0	32545	
4064	0	32473	
4065	0	32434	
4066	0	32468	
4067	0	32479	
4068	0	32549	
4069	0	32563	
4070	0	32568	
4071	0	32535	
4072	0	32537	
4073	0	32545	
4074	0	32529	
4075	0	32505	
4076	0	32501	
4077	0	32447	
4078	0	32571	
4079	0	32631	
4080	0	32591	
4081	0	32620	
4082	0	32613	
4083	0	32549	
4084	0	32473	
4085	0	32449	
4086	0	32405	
4087	0	32368	
4088	0	32395	
4089	0	32376	
4090	0	32421	
4091	0	32436	
4092	0	32470	
4093	0	32353	
4094	0	32353	
4095	0	32385	
4096	0	32344	
4097	0	32321	
4098	0	32367	
4099	0	32349	
4100	0	32399	
4101	0	32417	
4102	0	32421	
4103	0	32438	
4104	0	32516	
4105	0	32607	
4106	0	32600	
4107	0	32539	
4108	0	32527	
4109	0	32468	
4110	0	32391	
4111	0	32381	
4112	0	32288	
4113	0	32292	
4114	0	32405	
4115	0	32442	
4116	0	32528	
4117	0	32537	
4118	0	32483	
4119	0	32468	
4120	0	32457	
4121	0	32396	
4122	0	32277	
4123	0	32231	
4124	0	32223	
4125	0	32295	
4126	0	32281	
4127	0	32285	
4128	0	32275	
4129	0	32356	
4130	0	32364	
4131	0	32409	
4132	0	32357	
4133	0	32365	
4134	0	32411	
4135	0	32420	
4136	0	32447	
4137	0	32533	
4138	0	32471	
4139	0	32427	
4140	0	32365	
4141	0	32324	
4142	0	32421	
4143	0	32501	
4144	0	32469	
4145	0	32433	
4146	0	32413	
4147	0	32441	
4148	0	32413	
4149	0	32442	
4150	0	32511	
4151	0	32485	
4152	0	32443	
4153	0	32447	
4154	0	32420	
4155	0	32413	
4156	0	32357	
4157	0	32365	
4158	0	32445	
4159	0	32565	
4160	0	32588	
4161	0	32572	
4162	0	32605	
4163	0	32484	
4164	0	32531	
4165	0	32617	
4166	0	32609	
4167	0	32567	
4168	0	32565	
4169	0	32633	
4170	0	32612	
4171	0	32733	
4172	0	32707	
4173	0	32729	
4174	0	32635	
4175	0	32505	
4176	0	32352	
4177	0	32432	
4178	0	32435	
4179	0	32492	
4180	0	32468	
4181	0	32512	
4182	0	32517	
4183	0	32521	
4184	0	32545	
4185	0	32653	
4186	0	32645	
4187	0	32651	
4188	0	32655	
4189	0	32665	
4190	0	32676	
4191	0	32543	
4192	0	32534	
4193	0	32556	
4194	0	32617	
4195	0	32563	
4196	0	32452	
4197	0	32487	
4198	0	32517	
4199	0	32527	
4200	0	32516	
4201	0	32569	
4202	0	32581	
4203	0	32593	
4204	0	32639	
4205	0	32611	
4206	0	32609	
4207	0	32605	
4208	0	32567	
4209	0	32445	
4210	0	32508	
4211	0	32493	
4212	0	32440	
4213	0	32517	
4214	0	32597	
4215	0	32623	
4216	0	32525	
4217	0	32487	
4218	0	32505	
4219	0	32436	
4220	0	32381	
4221	0	32289	
4222	0	32277	
4223	0	32229	
4224	0	32277	
4225	0	32309	
4226	0	32341	
4227	0	32244	
4228	0	32239	
4229	0	32260	
4230	0	32207	
4231	0	32119	
4232	0	32080	
4233	0	32103	
4234	0	32137	
4235	0	32193	
4236	0	32188	
4237	0	32316	
4238	0	32348	
4239	0	32324	
4240	0	32273	
4241	0	32252	
4242	0	32156	
4243	0	32109	
4244	0	31945	
4245	0	32047	
4246	0	32077	
4247	0	32180	
4248	0	32227	
4249	0	32281	
4250	0	32451	
4251	0	32541	
4252	0	32525	
4253	0	32508	
4254	0	32413	
4255	0	32393	
4256	0	32265	
4257	0	32307	
4258	0	32237	
4259	0	32200	
4260	0	32239	
4261	0	32248	
4262	0	32252	
4263	0	32259	
4264	0	32241	
4265	0	32266	
4266	0	32269	
4267	0	32247	
4268	0	32325	
4269	0	32320	
4270	0	32348	
4271	0	32329	
4272	0	32373	
4273	0	32377	
4274	0	32443	
4275	0	32446	
4276	0	32448	
4277	0	32469	
4278	0	32439	
4279	0	32449	
4280	0	32396	
4281	0	32428	
4282	0	32461	
4283	0	32556	
4284	0	32584	
4285	0	32588	
4286	0	32609	
4287	0	32596	
4288	0	32541	
4289	0	32604	
4290	0	32532	
4291	0	32452	
4292	0	32460	
4293	0	32489	
4294	0	32557	
4295	0	32559	
4296	0	32608	
4297	0	32541	
4298	0	32529	
4299	0	32581	
4300	0	32518	
4301	0	32537	
4302	0	32621	
4303	0	32600	
4304	0	32631	
4305	0	32543	
4306	0	32523	
4307	0	32527	
4308	0	32525	
4309	0	32557	
4310	0	32501	
4311	0	32588	
4312	0	32569	
4313	0	32567	
4314	0	32552	
4315	0	32593	
4316	0	32661	
4317	0	32589	
4318	0	32537	
4319	0	32444	
4320	0	32459	
4321	0	32463	
4322	0	32577	
4323	0	32701	
4324	0	32681	
4325	0	32688	
4326	0	32669	
4327	0	32668	
4328	0	32560	
4329	0	32529	
4330	0	32487	
4331	0	32476	
4332	0	32447	
4333	0	32481	
4334	0	32449	
4335	0	32537	
4336	0	32543	
4337	0	32581	
4338	0	32484	
4339	0	32480	
4340	0	32484	
4341	0	32493	
4342	0	32477	
4343	0	32439	
4344	0	32391	
4345	0	32397	
4346	0	32345	
4347	0	32383	
4348	0	32373	
4349	0	32303	
4350	0	32314	
4351	0	32367	
4352	0	32324	
4353	0	32249	
4354	0	32278	
4355	0	32235	
4356	0	32189	
4357	0	32162	
4358	0	32204	
4359	0	32225	
4360	0	32204	
4361	0	32259	
4362	0	32221	
4363	0	32268	
4364	0	32223	
4365	0	32277	
4366	0	32229	
4367	0	32327	
4368	0	32311	
4369	0	32303	
4370	0	32339	
4371	0	32279	
4372	0	32196	
4373	0	32252	
4374	0	32289	
4375	0	32253	
4376	0	32227	
4377	0	32205	
4378	0	32173	
4379	0	32081	
4380	0	32075	
4381	0	32160	
4382	0	32169	
4383	0	32215	
4384	0	32300	
4385	0	32261	
4386	0	32301	
4387	0	32285	
4388	0	32213	
4389	0	32164	
4390	0	32213	
4391	0	32209	
4392	0	32227	
4393	0	32197	
4394	0	32244	
4395	0	32226	
4396	0	32228	
4397	0	32308	
4398	0	32313	
4399	0	32377	
4400	0	32364	
4401	0	32319	
4402	0	32205	
4403	0	32175	
4404	0	32181	
4405	0	32133	
4406	0	32135	
4407	0	32204	
4408	0	32276	
4409	0	32357	
4410	0	32365	
4411	0	32351	
4412	0	32285	
4413	0	32292	
4414	0	32223	
4415	0	32217	
4416	0	32091	
4417	0	32148	
4418	0	32177	
4419	0	32145	
4420	0	32184	
4421	0	32160	
4422	0	32083	
4423	0	32101	
4424	0	32089	
4425	0	32119	
4426	0	32133	
4427	0	32184	
4428	0	32241	
4429	0	32233	
4430	0	32193	
4431	0	32209	
4432	0	32101	
4433	0	32065	
4434	0	32101	
4435	0	32133	
4436	0	32149	
4437	0	32200	
4438	0	32184	
4439	0	32221	
4440	0	32217	
4441	0	32197	
4442	0	32184	
4443	0	32212	
4444	0	32217	
4445	0	32183	
4446	0	32181	
4447	0	32137	
4448	0	32201	
4449	0	32227	
4450	0	32292	
4451	0	32284	
4452	0	32320	
4453	0	32303	
4454	0	32343	
4455	0	32330	
4456	0	32316	
4457	0	32259	
4458	0	32192	
4459	0	32135	
4460	0	32201	
4461	0	32161	
4462	0	32084	
4463	0	32037	
4464	0	32057	
4465	0	32061	
4466	0	32000	
4467	0	31993	
4468	0	32025	
4469	0	32044	
4470	0	32071	
4471	0	31949	
4472	0	31945	
4473	0	31840	
4474	0	31781	
4475	0	31847	
4476	0	31865	
4477	0	31852	
4478	0	31845	
4479	0	31781	
4480	0	31810	
4481	0	31769	
4482	0	31739	
4483	0	31735	
4484	0	31738	
4485	0	31785	
4486	0	31765	
4487	0	31845	
4488	0	31893	
4489	0	31905	
4490	0	31896	
4491	0	31878	
4492	0	31835	
4493	0	31805	
4494	0	31745	
4495	0	31741	
4496	0	31703	
4497	0	31677	
4498	0	31645	
4499	0	31717	
4500	0	31647	
4501	0	31557	
4502	0	31621	
4503	0	31685	
4504	0	31676	
4505	0	31647	
4506	0	31633	
4507	0	31653	
4508	0	31653	
4509	0	31593	
4510	0	31503	
4511	0	31430	
4512	0	31421	
4513	0	31413	
4514	0	31425	
4515	0	31467	
4516	0	31524	
4517	0	31539	
4518	0	31525	
4519	0	31497	
4520	0	31522	
4521	0	31624	
4522	0	31639	
4523	0	31669	
4524	0	31639	
4525	0	31617	
4526	0	31669	
4527	0	31623	
4528	0	31625	
4529	0	31640	
4530	0	31633	
4531	0	31634	
4532	0	31683	
4533	0	31668	
4534	0	31657	
4535	0	31635	
4536	0	31609	
4537	0	31609	
4538	0	31693	
4539	0	31756	
4540	0	31813	
4541	0	31854	
4542	0	31780	
4543	0	31681	
4544	0	31725	
4545	0	31753	
4546	0	31759	
4547	0	31815	
4548	0	31829	
4549	0	31819	
4550	0	31826	
4551	0	31833	
4552	0	31869	
4553	0	31800	
4554	0	31781	
4555	0	31692	
4556	0	31842	
4557	0	31855	
4558	0	31888	
4559	0	31874	
4560	0	31860	
4561	0	31751	
4562	0	31767	
4563	0	31748	
4564	0	31801	
4565	0	31765	
4566	0	31743	
4567	0	31740	
4568	0	31826	
4569	0	31905	
4570	0	31880	
4571	0	31873	
4572	0	31937	
4573	0	31928	
4574	0	31931	
4575	0	31908	
4576	0	31841	
4577	0	31903	
4578	0	31851	
4579	0	31952	
4580	0	32037	
4581	0	31946	
4582	0	31932	
4583	0	31929	
4584	0	31983	
4585	0	31948	
4586	0	31825	
4587	0	31765	
4588	0	31780	
4589	0	31773	
4590	0	31847	
4591	0	31788	
4592	0	31826	
4593	0	31805	
4594	0	31801	
4595	0	31793	
4596	0	31821	
4597	0	31757	
4598	0	31748	
4599	0	31736	
4600	0	31676	
4601	0	31735	
4602	0	31741	
4603	0	31741	
4604	0	31694	
4605	0	31540	
4606	0	31628	
4607	0	31633	
4608	0	31708	
4609	0	31700	
4610	0	31661	
4611	0	31681	
4612	0	31615	
4613	0	31586	
4614	0	31517	
4615	0	31475	
4616	0	31437	
4617	0	31448	
4618	0	31449	
4619	0	31375	
4620	0	31349	
4621	0	31337	
4622	0	31337	
4623	0	31265	
4624	0	31245	
4625	0	31221	
4626	0	31140	
4627	0	31045	
4628	0	31029	
4629	0	31061	
4630	0	31055	
4631	0	31015	
4632	0	31021	
4633	0	31097	
4634	0	31169	
4635	0	31209	
4636	0	31205	
4637	0	31225	
4638	0	31257	
4639	0	31284	
4640	0	31276	
4641	0	31317	
4642	0	31381	
4643	0	31393	
4644	0	31476	
4645	0	31448	
4646	0	31401	
4647	0	31446	
4648	0	31452	
4649	0	31452	
4650	0	31405	
4651	0	31429	
4652	0	31469	
4653	0	31498	
4654	0	31574	
4655	0	31636	
4656	0	31625	
4657	0	31751	
4658	0	31773	
4659	0	31799	
4660	0	31840	
4661	0	31845	
4662	0	31821	
4663	0	31801	
4664	0	31877	
4665	0	31945	
4666	0	31939	
4667	0	31901	
4668	0	31903	
4669	0	31978	
4670	0	32033	
4671	0	32004	
4672	0	31992	
4673	0	32063	
4674	0	32208	
4675	0	32211	
4676	0	32170	
4677	0	32220	
4678	0	32221	
4679	0	32187	
4680	0	32167	
4681	0	32143	
4682	0	32241	
4683	0	32240	
4684	0	32279	
4685	0	32273	
4686	0	32325	
4687	0	32347	
4688	0	32361	
4689	0	32393	
4690	0	32421	
4691	0	32476	
4692	0	32468	
4693	0	32401	
4694	0	32360	
4695	0	32373	
4696	0	32320	
4697	0	32348	
4698	0	32331	
4699	0	32335	
4700	0	32239	
4701	0	32267	
4702	0	32317	
4703	0	32247	
4704	0	32207	
4705	0	32153	
4706	0	32144	
4707	0	32127	
4708	0	32129	
4709	0	32243	
4710	0	32229	
4711	0	32353	
4712	0	32301	
4713	0	32285	
4714	0	32256	
4715	0	32181	
4716	0	32069	
4717	0	32044	
4718	0	32044	
4719	0	32175	
4720	0	32170	
4721	0	32169	
4722	0	32220	
4723	0	32217	
4724	0	32145	
4725	0	32128	
4726	0	32079	
4727	0	32055	
4728	0	31988	
4729	0	31937	
4730	0	31841	
4731	0	31864	
4732	0	31865	
4733	0	31885	
4734	0	31841	
4735	0	31845	
4736	0	31868	
4737	0	31837	
4738	0	31861	
4739	0	31861	
4740	0	31834	
4741	0	31813	
4742	0	31752	
4743	0	31765	
4744	0	31861	
4745	0	31872	
4746	0	31985	
4747	0	31927	
4748	0	31869	
4749	0	31920	
4750	0	31925	
4751	0	31940	
4752	0	31900	
4753	0	31852	
4754	0	31893	
4755	0	31936	
4756	0	31964	
4757	0	31980	
4758	0	31969	
4759	0	31928	
4760	0	31969	
4761	0	32013	
4762	0	32077	
4763	0	32104	
4764	0	32219	
4765	0	32247	
4766	0	32275	
4767	0	32331	
4768	0	32266	
4769	0	32297	
4770	0	32343	
4771	0	32403	
4772	0	32364	
4773	0	32345	
4774	0	32317	
4775	0	32325	
4776	0	32385	
4777	0	32325	
4778	0	32284	
4779	0	32369	
4780	0	32419	
4781	0	32404	
4782	0	32391	
4783	0	32415	
4784	0	32457	
4785	0	32477	
4786	0	32472	
4787	0	32525	
4788	0	32553	
4789	0	32617	
4790	0	32653	
4791	0	32608	
4792	0	32595	
4793	0	32645	
4794	0	32601	
4795	0	32553	
4796	0	32582	
4797	0	32517	
4798	0	32433	
4799	0	32420	
4800	0	32388	
4801	0	32309	
4802	0	32309	
4803	0	32388	
4804	0	32404	
4805	0	32556	
4806	0	32535	
4807	0	32543	
4808	0	32504	
4809	0	32514	
4810	0	32509	
4811	0	32447	
4812	0	32481	
4813	0	32553	
4814	0	32485	
4815	0	32471	
4816	0	32502	
4817	0	32576	
4818	0	32551	
4819	0	32520	
4820	0	32496	
4821	0	32513	
4822	0	32535	
4823	0	32509	
4824	0	32677	
4825	0	32661	
4826	0	32632	
4827	0	32661	
4828	0	32597	
4829	0	32529	
4830	0	32481	
4831	0	32469	
4832	0	32458	
4833	0	32423	
4834	0	32429	
4835	0	32397	
4836	0	32419	
4837	0	32413	
4838	0	32385	
4839	0	32375	
4840	0	32337	
4841	0	32372	
4842	0	32417	
4843	0	32435	
4844	0	32401	
4845	0	32363	
4846	0	32373	
4847	0	32417	
4848	0	32417	
4849	0	32357	
4850	0	32349	
4851	0	32329	
4852	0	32265	
4853	0	32336	
4854	0	32369	
4855	0	32407	
4856	0	32463	
4857	0	32445	
4858	0	32320	
4859	0	32247	
4860	0	32201	
4861	0	32280	
4862	0	32352	
4863	0	32381	
4864	0	32455	
4865	0	32383	
4866	0	32370	
4867	0	32279	
4868	0	32273	
4869	0	32259	
4870	0	32276	
4871	0	32233	
4872	0	32160	
4873	0	32153	
4874	0	32111	
4875	0	32073	
4876	0	32045	
4877	0	32053	
4878	0	31996	
4879	0	32037	
4880	0	31951	
4881	0	31868	
4882	0	31860	
4883	0	31851	
4884	0	31848	
4885	0	31897	
4886	0	31889	
4887	0	31882	
4888	0	31869	
4889	0	31805	
4890	0	31785	
4891	0	31764	
4892	0	31792	
4893	0	31915	
4894	0	31973	
4895	0	32065	
4896	0	32121	
4897	0	32141	
4898	0	32209	
4899	0	32248	
4900	0	32359	
4901	0	32454	
4902	0	32469	
4903	0	32501	
4904	0	32511	
4905	0	32523	
4906	0	32556	
4907	0	32573	
4908	0	32707	
4909	0	32785	
4910	0	32865	
4911	0	32893	
4912	0	32887	
4913	0	32893	
4914	0	32997	
4915	0	32996	
4916	0	32997	
4917	0	32997	
4918	0	33037	
4919	0	33063	
4920	0	33060	
4921	0	32984	
4922	0	32932	
4923	0	32935	
4924	0	32900	
4925	0	32812	
4926	0	32684	
4927	0	32714	
4928	0	32716	
4929	0	32679	
4930	0	32773	
4931	0	32749	
4932	0	32743	
4933	0	32725	
4934	0	32645	
4935	0	32668	
4936	0	32681	
4937	0	32587	
4938	0	32581	
4939	0	32645	
4940	0	32644	
4941	0	32708	
4942	0	32660	
4943	0	32599	
4944	0	32565	
4945	0	32543	
4946	0	32508	
4947	0	32557	
4948	0	32652	
4949	0	32673	
4950	0	32688	
4951	0	32668	
4952	0	32598	
4953	0	32551	
4954	0	32595	
4955	0	32671	
4956	0	32620	
4957	0	32579	
4958	0	32585	
4959	0	32631	
4960	0	32593	
4961	0	32686	
4962	0	32673	
4963	0	32601	
4964	0	32533	
4965	0	32501	
4966	0	32617	
4967	0	32605	
4968	0	32637	
4969	0	32645	
4970	0	32603	
4971	0	32621	
4972	0	32707	
4973	0	32749	
4974	0	32734	
4975	0	32709	
4976	0	32672	
4977	0	32625	
4978	0	32597	
4979	0	32660	
4980	0	32660	
4981	0	32609	
4982	0	32683	
4983	0	32700	
4984	0	32689	
4985	0	32695	
4986	0	32665	
4987	0	32702	
4988	0	32735	
4989	0	32683	
4990	0	32652	
4991	0	32557	
4992	0	32449	
4993	0	32471	
4994	0	32509	
4995	0	32515	
4996	0	32506	
4997	0	32604	
4998	0	32744	
4999	0	32688	
5000	0	32665	
5001	0	32593	
5002	0	32533	
5003	0	32676	
5004	0	32728	
5005	0	32651	
5006	0	32625	
5007	0	32645	
5008	0	32612	
5009	0	32579	
5010	0	32633	
5011	0	32677	
5012	0	32677	
5013	0	32731	
5014	0	32704	
5015	0	32717	
5016	0	32677	
5017	0	32701	
5018	0	32659	
5019	0	32689	
5020	0	32700	
5021	0	32713	
5022	0	32732	
5023	0	32652	
5024	0	32697	
5025	0	32641	
5026	0	32677	
5027	0	32595	
5028	0	32573	
5029	0	32635	
5030	0	32551	
5031	0	32569	
5032	0	32533	
5033	0	32555	
5034	0	32500	
5035	0	32445	
5036	0	32381	
5037	0	32543	
5038	0	32573	
5039	0	32618	
5040	0	32599	
5041	0	32673	
5042	0	32733	
5043	0	32647	
5044	0	32661	
5045	0	32645	
5046	0	32631	
5047	0	32593	
5048	0	32600	
5049	0	32644	
5050	0	32676	
5051	0	32621	
5052	0	32624	
5053	0	32589	
5054	0	32589	
5055	0	32545	
5056	0	32509	
5057	0	32524	
5058	0	32499	
5059	0	32455	
5060	0	32449	
5061	0	32493	
5062	0	32562	
5063	0	32553	
5064	0	32591	
5065	0	32503	
5066	0	32609	
5067	0	32508	
5068	0	32528	
5069	0	32576	
5070	0	32553	
5071	0	32504	
5072	0	32499	
5073	0	32497	
5074	0	32409	
5075	0	32380	
5076	0	32513	
5077	0	32460	
5078	0	32439	
5079	0	32449	
5080	0	32456	
5081	0	32508	
5082	0	32440	
5083	0	32409	
5084	0	32402	
5085	0	32321	
5086	0	32356	
5087	0	32412	
5088	0	32417	
5089	0	32365	
5090	0	32337	
5091	0	32305	
5092	0	32319	
5093	0	32389	
5094	0	32339	
5095	0	32411	
5096	0	32359	
5097	0	32325	
5098	0	32401	
5099	0	32372	
5100	0	32433	
5101	0	32444	
5102	0	32477	
5103	0	32383	
5104	0	32401	
5105	0	32380	
5106	0	32404	
5107	0	32484	
5108	0	32492	
5109	0	32452	
5110	0	32513	
5111	0	32429	
5112	0	32345	
5113	0	32336	
5114	0	32413	
5115	0	32381	
5116	0	32425	
5117	0	32339	
5118	0	32261	
5119	0	32250	
5120	0	32213	
5121	0	32196	
5122	0	32197	
5123	0	32240	
5124	0	32265	
5125	0	32353	
5126	0	32334	
5127	0	32308	
5128	0	32325	
5129	0	32373	
5130	0	32389	
5131	0	32423	
5132	0	32552	
5133	0	32507	
5134	0	32581	
5135	0	32581	
5136	0	32620	
5137	0	32585	
5138	0	32569	
5139	0	32636	
5140	0	32625	
5141	0	32644	
5142	0	32647	
5143	0	32617	
5144	0	32601	
5145	0	32605	
5146	0	32626	
5147	0	32547	
5148	0	32447	
5149	0	32535	
5150	0	32536	
5151	0	32604	
5152	0	32598	
5153	0	32559	
5154	0	32550	
5155	0	32589	
5156	0	32612	
5157	0	32638	
5158	0	32625	
5159	0	32605	
5160	0	32617	
5161	0	32707	
5162	0	32685	
5163	0	32769	
5164	0	32740	
5165	0	32722	
5166	0	32759	
5167	0	32674	
5168	0	32717	
5169	0	32646	
5170	0	32760	
5171	0	32765	
5172	0	32893	
5173	0	32989	
5174	0	33020	
5175	0	33025	
5176	0	33019	
5177	0	33037	
5178	0	33073	
5179	0	33045	
5180	0	32997	
5181	0	33023	
5182	0	33085	
5183	0	33052	
5184	0	33204	
5185	0	33271	
5186	0	33277	
5187	0	33476	
5188	0	33744	
5189	0	33893	
5190	0	33888	
5191	0	33731	
5192	0	33697	
5193	0	34535	
5194	0	35223	
5195	0	35231	
5196	0	34801	
5197	0	34245	
5198	0	33899	
5199	0	34077	
5200	0	34373	
5201	0	34501	
5202	0	34623	
5203	0	34709	
5204	0	35020	
5205	0	35589	
5206	0	36097	
5207	0	36280	
5208	0	36293	
5209	0	36556	
5210	0	36893	
5211	0	37181	
5212	0	37676	
5213	0	38021	
5214	0	38261	
5215	0	38501	
5216	0	38948	
5217	0	39825	
5218	0	40533	
5219	0	40964	
5220	0	41493	
5221	0	42015	
5222	0	42816	
5223	0	43317	
5224	0	43469	
5225	0	43469	
5226	0	43517	
5227	0	43995	
5228	0	44604	
5229	0	45458	
5230	0	46385	
5231	0	47170	
5232	0	47805	
5233	0	48501	
5234	0	49260	
5235	0	49897	
5236	0	50628	
5237	0	51317	
5238	0	51901	
5239	0	52477	
5240	0	52948	
5241	0	53607	
5242	0	54175	
5243	0	54829	
5244	0	55361	
5245	0	55807	
5246	0	56177	
5247	0	56517	
5248	0	56928	
5249	0	57212	
5250	0	57465	
5251	0	57741	
5252	0	57956	
5253	0	58245	
5254	0	58389	
5255	0	58420	
5256	0	58433	
5257	0	58519	
5258	0	58620	
5259	0	58757	
5260	0	58901	
5261	0	59065	
5262	0	59084	
5263	0	59149	
5264	0	59137	
5265	0	59089	
5266	0	59073	
5267	0	59029	
5268	0	58997	
5269	0	58925	
5270	0	58767	
5271	0	58604	
5272	0	58436	
5273	0	58277	
5274	0	58109	
5275	0	57932	
5276	0	57716	
5277	0	57509	
5278	0	57285	
5279	0	57024	
5280	0	56665	
5281	0	56413	
5282	0	56009	
5283	0	55749	
5284	0	55332	
5285	0	54973	
5286	0	54663	
5287	0	54385	
5288	0	54070	
5289	0	53608	
5290	0	53240	
5291	0	52835	
5292	0	52489	
5293	0	52125	
5294	0	51727	
5295	0	51325	
5296	0	51016	
5297	0	50709	
5298	0	50405	
5299	0	50079	
5300	0	49809	
5301	0	49500	
5302	0	49197	
5303	0	48820	
5304	0	48419	
5305	0	48126	
5306	0	47804	
5307	0	47547	
5308	0	47201	
5309	0	46889	
5310	0	46588	
5311	0	46377	
5312	0	46016	
5313	0	45672	
5314	0	45439	
5315	0	45157	
5316	0	44901	
5317	0	44645	
5318	0	44287	
5319	0	44005	
5320	0	43727	
5321	0	43557	
5322	0	43405	
5323	0	43237	
5324	0	42973	
5325	0	42668	
5326	0	42493	
5327	0	42225	
5328	0	42036	
5329	0	41823	
5330	0	41657	
5331	0	41553	
5332	0	41327	
5333	0	41169	
5334	0	40901	
5335	0	40717	
5336	0	40397	
5337	0	40188	
5338	0	39921	
5339	0	39793	
5340	0	39569	
5341	0	39447	
5342	0	39337	
5343	0	39242	
5344	0	39121	
5345	0	38973	
5346	0	38860	
5347	0	38703	
5348	0	38537	
5349	0	38437	
5350	0	38273	
5351	0	38215	
5352	0	38177	
5353	0	38048	
5354	0	37848	
5355	0	37773	
5356	0	37644	
5357	0	37447	
5358	0	37319	
5359	0	37125	
5360	0	37089	
5361	0	37011	
5362	0	36973	
5363	0	36897	
5364	0	36829	
5365	0	36749	
5366	0	36741	
5367	0	36557	
5368	0	36489	
5369	0	36447	
5370	0	36379	
5371	0	36272	
5372	0	36189	
5373	0	36069	
5374	0	35921	
5375	0	35752	
5376	0	35725	
5377	0	35605	
5378	0	35665	
5379	0	35682	
5380	0	35589	
5381	0	35373	
5382	0	35265	
5383	0	35172	
5384	0	35087	
5385	0	35093	
5386	0	34961	
5387	0	34937	
5388	0	34861	
5389	0	34863	
5390	0	34773	
5391	0	34735	
5392	0	34620	
5393	0	34563	
5394	0	34519	
5395	0	34483	
5396	0	34433	
5397	0	34371	
5398	0	34305	
5399	0	34164	
5400	0	34145	
5401	0	34081	
5402	0	34017	
5403	0	34037	
5404	0	33951	
5405	0	33927	
5406	0	33991	
5407	0	33868	
5408	0	33769	
5409	0	33677	
5410	0	33650	
5411	0	33537	
5412	0	33513	
5413	0	33541	
5414	0	33484	
5415	0	33465	
5416	0	33425	
5417	0	33453	
5418	0	33409	
5419	0	33353	
5420	0	33252	
5421	0	33145	
5422	0	33112	
5423	0	32935	
5424	0	32935	
5425	0	32933	
5426	0	32965	
5427	0	32885	
5428	0	32956	
5429	0	32864	
5430	0	32789	
5431	0	32704	
5432	0	32617	
5433	0	32612	
5434	0	32540	
5435	0	32545	
5436	0	32605	
5437	0	32549	
5438	0	32369	
5439	0	32375	
5440	0	32344	
5441	0	32381	
5442	0	32401	
5443	0	32335	
5444	0	32356	
5445	0	32356	
5446	0	32287	
5447	0	32228	
5448	0	32209	
5449	0	32247	
5450	0	32204	
5451	0	32196	
5452	0	32125	
5453	0	32184	
5454	0	32207	
5455	0	32196	
5456	0	32111	
5457	0	32155	
5458	0	32169	
5459	0	32165	
5460	0	32153	
5461	0	32169	
5462	0	32035	
5463	0	32067	
5464	0	32071	
5465	0	32113	
5466	0	32140	
5467	0	32189	
5468	0	32203	
5469	0	32261	
5470	0	32185	
5471	0	32147	
5472	0	32135	
5473	0	32117	
5474	0	32071	
5475	0	32045	
5476	0	32045	
5477	0	32092	
5478	0	32039	
5479	0	31973	
5480	0	32004	
5481	0	32050	
5482	0	32021	
5483	0	31983	
5484	0	31956	
5485	0	32000	
5486	0	31898	
5487	0	31917	
5488	0	31973	
5489	0	31895	
5490	0	31811	
5491	0	31913	
5492	0	31885	
5493	0	31847	
5494	0	31806	
5495	0	31780	
5496	0	31683	
5497	0	31655	
5498	0	31645	
5499	0	31713	
5500	0	31684	
5501	0	31669	
5502	0	31728	
5503	0	31669	
5504	0	31650	
5505	0	31583	
5506	0	31540	
5507	0	31605	
5508	0	31512	
5509	0	31563	
5510	0	31559	
5511	0	31541	
5512	0	31534	
5513	0	31525	
5514	0	31551	
5515	0	31541	
5516	0	31455	
5517	0	31488	
5518	0	31431	
5519	0	31447	
5520	0	31429	
5521	0	31481	
5522	0	31445	
5523	0	31401	
5524	0	31409	
5525	0	31405	
5526	0	31389	
5527	0	31385	
5528	0	31404	
5529	0	31441	
5530	0	31440	
5531	0	31363	
5532	0	31369	
5533	0	31292	
5534	0	31252	
5535	0	31325	
5536	0	31357	
5537	0	31411	
5538	0	31383	
5539	0	31359	
5540	0	31281	
5541	0	31317	
5542	0	31317	
5543	0	31361	
5544	0	31317	
5545	0	31269	
5546	0	31324	
5547	0	31383	
5548	0	31371	
5549	0	31533	
5550	0	31519	
5551	0	31445	
5552	0	31433	
5553	0	31430	
5554	0	31429	
5555	0	31357	
5556	0	31341	
5557	0	31277	
5558	0	31240	
5559	0	31348	
5560	0	31364	
5561	0	31316	
5562	0	31206	
5563	0	31294	
5564	0	31312	
5565	0	31228	
5566	0	31312	
5567	0	31209	
5568	0	31260	
5569	0	31258	
5570	0	31245	
5571	0	31246	
5572	0	31243	
5573	0	31199	
5574	0	31242	
5575	0	31183	
5576	0	31168	
5577	0	31116	
5578	0	31129	
5579	0	31149	
5580	0	31111	
5581	0	31085	
5582	0	31127	
5583	0	31153	
5584	0	31172	
5585	0	31208	
5586	0	31152	
5587	0	31169	
5588	0	31119	
5589	0	31179	
5590	0	31181	
5591	0	31195	
5592	0	31183	
5593	0	31247	
5594	0	31201	
5595	0	31183	
5596	0	31205	
5597	0	31164	
5598	0	31220	
5599	0	31203	
5600	0	31215	
5601	0	31221	
5602	0	31159	
5603	0	31103	
5604	0	31156	
5605	0	31057	
5606	0	31087	
5607	0	31168	
5608	0	31160	
5609	0	31181	
5610	0	31204	
5611	0	31165	
5612	0	31237	
5613	0	31144	
5614	0	31215	
5615	0	31289	
5616	0	31321	
5617	0	31396	
5618	0	31367	
5619	0	31349	
5620	0	31286	
5621	0	31157	
5622	0	31122	
5623	0	31021	
5624	0	31082	
5625	0	31151	
5626	0	31205	
5627	0	31237	
5628	0	31309	
5629	0	31356	
5630	0	31261	
5631	0	31307	
5632	0	31252	
5633	0	31309	
5634	0	31262	
5635	0	31253	
5636	0	31196	
5637	0	31231	
5638	0	31229	
5639	0	31268	
5640	0	31263	
5641	0	31253	
5642	0	31217	
5643	0	31225	
5644	0	31236	
5645	0	31357	
5646	0	31393	
5647	0	31381	
5648	0	31341	
5649	0	31255	
5650	0	31193	
5651	0	31151	
5652	0	31168	
5653	0	31241	
5654	0	31260	
5655	0	31185	
5656	0	31191	
5657	0	31153	
5658	0	31259	
5659	0	31293	
5660	0	31328	
5661	0	31217	
5662	0	31229	
5663	0	31297	
5664	0	31289	
5665	0	31279	
5666	0	31209	
5667	0	31287	
5668	0	31257	
5669	0	31284	
5670	0	31276	
5671	0	31413	
5672	0	31449	
5673	0	31411	
5674	0	31426	
5675	0	31413	
5676	0	31399	
5677	0	31468	
5678	0	31516	
5679	0	31536	
5680	0	31497	
5681	0	31407	
5682	0	31436	
5683	0	31415	
5684	0	31401	
5685	0	31407	
5686	0	31369	
5687	0	31357	
5688	0	31471	
5689	0	31492	
5690	0	31533	
5691	0	31613	
5692	0	31708	
5693	0	31757	
5694	0	31649	
5695	0	31519	
5696	0	31500	
5697	0	31544	
5698	0	31497	
5699	0	31404	
5700	0	31561	
5701	0	31621	
5702	0	31564	
5703	0	31575	
5704	0	31636	
5705	0	31621	
5706	0	31600	
5707	0	31504	
5708	0	31409	
5709	0	31255	
5710	0	31225	
5711	0	31257	
5712	0	31285	
5713	0	31365	
5714	0	31351	
5715	0	31447	
5716	0	31465	
5717	0	31481	
5718	0	31433	
5719	0	31391	
5720	0	31304	
5721	0	31373	
5722	0	31425	
5723	0	31483	
5724	0	31479	
5725	0	31537	
5726	0	31589	
5727	0	31588	
5728	0	31528	
5729	0	31520	
5730	0	31460	
5731	0	31357	
5732	0	31307	
5733	0	31367	
5734	0	31363	
5735	0	31321	
5736	0	31301	
5737	0	31335	
5738	0	31436	
5739	0	31414	
5740	0	31453	
5741	0	31444	
5742	0	31449	
5743	0	31456	
5744	0	31425	
5745	0	31445	
5746	0	31405	
5747	0	31447	
5748	0	31447	
5749	0	31484	
5750	0	31504	
5751	0	31500	
5752	0	31493	
5753	0	31391	
5754	0	31385	
5755	0	31418	
5756	0	31484	
5757	0	31537	
5758	0	31548	
5759	0	31527	
5760	0	31564	
5761	0	31613	
5762	0	31557	
5763	0	31556	
5764	0	31551	
5765	0	31508	
5766	0	31469	
5767	0	31448	
5768	0	31421	
5769	0	31425	
5770	0	31439	
5771	0	31471	
5772	0	31472	
5773	0	31501	
5774	0	31436	
5775	0	31469	
5776	0	31524	
5777	0	31559	
5778	0	31607	
5779	0	31629	
5780	0	31597	
5781	0	31607	
5782	0	31589	
5783	0	31575	
5784	0	31541	
5785	0	31433	
5786	0	31489	
5787	0	31565	
5788	0	31522	
5789	0	31636	
5790	0	31671	
5791	0	31684	
5792	0	31667	
5793	0	31635	
5794	0	31641	
5795	0	31593	
5796	0	31565	
5797	0	31536	
5798	0	31537	
5799	0	31553	
5800	0	31572	
5801	0	31569	
5802	0	31665	
5803	0	31668	
5804	0	31657	
5805	0	31653	
5806	0	31665	
5807	0	31689	
5808	0	31616	
5809	0	31537	
5810	0	31493	
5811	0	31511	
5812	0	31555	
5813	0	31479	
5814	0	31511	
5815	0	31465	
5816	0	31517	
5817	0	31441	
5818	0	31477	
5819	0	31415	
5820	0	31469	
5821	0	31472	
5822	0	31399	
5823	0	31452	
5824	0	31465	
5825	0	31441	
5826	0	31469	
5827	0	31524	
5828	0	31572	
5829	0	31637	
5830	0	31664	
5831	0	31697	
5832	0	31652	
5833	0	31626	
5834	0	31623	
5835	0	31629	
5836	0	31673	
5837	0	31617	
5838	0	31588	
5839	0	31585	
5840	0	31535	
5841	0	31509	
5842	0	31460	
5843	0	31453	
5844	0	31426	
5845	0	31463	
5846	0	31521	
5847	0	31501	
5848	0	31543	
5849	0	31599	
5850	0	31660	
5851	0	31618	
5852	0	31574	
5853	0	31525	
5854	0	31565	
5855	0	31441	
5856	0	31512	
5857	0	31477	
5858	0	31524	
5859	0	31601	
5860	0	31593	
5861	0	31771	
5862	0	31829	
5863	0	31793	
5864	0	31801	
5865	0	31805	
5866	0	31888	
5867	0	32013	
5868	0	32053	
5869	0	32049	
5870	0	32121	
5871	0	32133	
5872	0	32173	
5873	0	32199	
5874	0	32240	
5875	0	32227	
5876	0	32165	
5877	0	32099	
5878	0	32141	
5879	0	32185	
5880	0	32151	
5881	0	32033	
5882	0	32051	
5883	0	32055	
5884	0	32049	
5885	0	32116	
5886	0	32109	
5887	0	32065	
5888	0	32023	
5889	0	32013	
5890	0	31939	
5891	0	31941	
5892	0	31881	
5893	0	31803	
5894	0	31819	
5895	0	31838	
5896	0	31789	
5897	0	31797	
5898	0	31738	
5899	0	31787	
5900	0	31805	
5901	0	31748	
5902	0	31700	
5903	0	31692	
5904	0	31686	
5905	0	31708	
5906	0	31665	
5907	0	31669	
5908	0	31628	
5909	0	31673	
5910	0	31657	
5911	0	31700	
5912	0	31613	
5913	0	31621	
5914	0	31605	
5915	0	31607	
5916	0	31627	
5917	0	31576	
5918	0	31520	
5919	0	31473	
5920	0	31543	
5921	0	31583	
5922	0	31580	
5923	0	31547	
5924	0	31537	
5925	0	31553	
5926	0	31571	
5927	0	31646	
5928	0	31685	
5929	0	31685	
5930	0	31669	
5931	0	31652	
5932	0	31672	
5933	0	31664	
5934	0	31717	
5935	0	31724	
5936	0	31743	
5937	0	31810	
5938	0	31773	
5939	0	31696	
5940	0	31628	
5941	0	31663	
5942	0	31727	
5943	0	31759	
5944	0	31789	
5945	0	31813	
5946	0	31751	
5947	0	31779	
5948	0	31764	
5949	0	31741	
5950	0	31760	
5951	0	31684	
5952	0	31688	
5953	0	31762	
5954	0	31816	
5955	0	31800	
5956	0	31840	
5957	0	31893	
5958	0	31857	
5959	0	31782	
5960	0	31853	
5961	0	31884	
5962	0	31760	
5963	0	31740	
5964	0	31808	
5965	0	31812	
5966	0	31783	
5967	0	31809	
5968	0	31767	
5969	0	31779	
5970	0	31755	
5971	0	31796	
5972	0	31859	
5973	0	31881	
5974	0	31867	
5975	0	31888	
5976	0	31933	
5977	0	31940	
5978	0	31881	
5979	0	31929	
5980	0	31941	
5981	0	31876	
5982	0	31941	
5983	0	31933	
5984	0	31989	
5985	0	31930	
5986	0	31973	
5987	0	32065	
5988	0	32036	
5989	0	32012	
5990	0	31981	
5991	0	31925	
5992	0	31883	
5993	0	31869	
5994	0	31928	
5995	0	31973	
5996	0	32108	
5997	0	32132	
5998	0	32097	
5999	0	32101	
6000	0	32101	
6001	0	32013	
6002	0	32020	
6003	0	31943	
6004	0	31863	
6005	0	31740	
6006	0	31775	
6007	0	31704	
6008	0	31698	
6009	0	31711	
6010	0	31777	
6011	0	31863	
6012	0	31845	
6013	0	31849	
6014	0	31905	
6015	0	31891	
6016	0	31865	
6017	0	31923	
6018	0	31892	
6019	0	31945	
6020	0	31997	
6021	0	31948	
6022	0	31823	
6023	0	31885	
6024	0	31873	
6025	0	31921	
6026	0	31937	
6027	0	31888	
6028	0	31854	
6029	0	31827	
6030	0	31845	
6031	0	31854	
6032	0	31876	
6033	0	31847	
6034	0	31865	
6035	0	31957	
6036	0	31983	
6037	0	31947	
6038	0	32047	
6039	0	32031	
6040	0	32005	
6041	0	32003	
6042	0	31915	
6043	0	31933	
6044	0	31905	
6045	0	31943	
6046	0	31980	
6047	0	31920	
6048	0	31868	
6049	0	31897	
6050	0	31836	
6051	0	31777	
6052	0	31722	
6053	0	31733	
6054	0	31784	
6055	0	31727	
6056	0	31753	
6057	0	31857	
6058	0	31894	
6059	0	31876	
6060	0	31914	
6061	0	31831	
6062	0	31865	
6063	0	31795	
6064	0	31769	
6065	0	31723	
6066	0	31786	
6067	0	31748	
6068	0	31782	
6069	0	31849	
6070	0	31812	
6071	0	31816	
6072	0	31773	
6073	0	31841	
6074	0	31813	
6075	0	31799	
6076	0	31735	
6077	0	31847	
6078	0	31795	
6079	0	31796	
6080	0	31755	
6081	0	31753	
6082	0	31806	
6083	0	31785	
6084	0	31805	
6085	0	31759	
6086	0	31811	
6087	0	31865	
6088	0	31895	
6089	0	31865	
6090	0	31887	
6091	0	31845	
6092	0	31823	
6093	0	31809	
6094	0	31865	
6095	0	31903	
6096	0	31921	
6097	0	31941	
6098	0	31948	
6099	0	31873	
6100	0	31852	
6101	0	31833	
6102	0	31861	
6103	0	31861	
6104	0	31840	
6105	0	31852	
6106	0	31824	
6107	0	31839	
6108	0	31809	
6109	0	31860	
6110	0	31892	
6111	0	31888	
6112	0	31980	
6113	0	31948	
6114	0	31849	
6115	0	31909	
6116	0	31905	
6117	0	31871	
6118	0	31833	
6119	0	31741	
6120	0	31735	
6121	0	31713	
6122	0	31661	
6123	0	31681	
6124	0	31633	
6125	0	31541	
6126	0	31505	
6127	0	31509	
6128	0	31505	
6129	0	31468	
6130	0	31481	
6131	0	31549	
6132	0	31532	
6133	0	31683	
6134	0	31649	
6135	0	31615	
6136	0	31594	
6137	0	31633	
6138	0	31605	
6139	0	31621	
6140	0	31606	
6141	0	31539	
6142	0	31441	
6143	0	31505	
6144	0	31547	
6145	0	31495	
6146	0	31529	
6147	0	31498	
6148	0	31553	
6149	0	31496	
6150	0	31544	
6151	0	31517	
6152	0	31521	
6153	0	31521	
6154	0	31442	
6155	0	31501	
6156	0	31473	
6157	0	31485	
6158	0	31387	
6159	0	31299	
6160	0	31413	
6161	0	31421	
6162	0	31435	
6163	0	31405	
6164	0	31413	
6165	0	31360	
6166	0	31317	
6167	0	31364	
6168	0	31308	
6169	0	31417	
6170	0	31492	
6171	0	31463	
6172	0	31481	
6173	0	31575	
6174	0	31573	
6175	0	31585	
6176	0	31553	
6177	0	31524	
6178	0	31477	
6179	0	31497	
6180	0	31425	
6181	0	31469	
6182	0	31515	
6183	0	31527	
6184	0	31513	
6185	0	31553	
6186	0	31557	
6187	0	31541	
6188	0	31473	
6189	0	31468	
6190	0	31461	
6191	0	31453	
6192	0	31401	
6193	0	31397	
6194	0	31407	
6195	0	31461	
6196	0	31457	
6197	0	31509	
6198	0	31477	
6199	0	31513	
6200	0	31473	
6201	0	31372	
6202	0	31376	
6203	0	31369	
6204	0	31308	
6205	0	31319	
6206	0	31297	
6207	0	31265	
6208	0	31349	
6209	0	31347	
6210	0	31331	
6211	0	31371	
6212	0	31375	
6213	0	31425	
6214	0	31499	
6215	0	31485	
6216	0	31503	
6217	0	31423	
6218	0	31391	
6219	0	31389	
6220	0	31397	
6221	0	31413	
6222	0	31453	
6223	0	31423	
6224	0	31257	
6225	0	31209	
6226	0	31239	
6227	0	31269	
6228	0	31277	
6229	0	31333	
6230	0	31420	
6231	0	31425	
6232	0	31425	
6233	0	31364	
6234	0	31435	
6235	0	31452	
6236	0	31446	
6237	0	31532	
6238	0	31464	
6239	0	31447	
6240	0	31408	
6241	0	31325	
6242	0	31311	
6243	0	31274	
6244	0	31195	
6245	0	31233	
6246	0	31321	
6247	0	31416	
6248	0	31416	
6249	0	31422	
6250	0	31425	
6251	0	31471	
6252	0	31325	
6253	0	31310	
6254	0	31367	
6255	0	31353	
6256	0	31361	
6257	0	31332	
6258	0	31413	
6259	0	31369	
6260	0	31381	
6261	0	31369	
6262	0	31249	
6263	0	31237	
6264	0	31303	
6265	0	31249	
6266	0	31273	
6267	0	31329	
6268	0	31303	
6269	0	31317	
6270	0	31359	
6271	0	31365	
6272	0	31337	
6273	0	31341	
6274	0	31309	
6275	0	31260	
6276	0	31184	
6277	0	31137	
6278	0	31041	
6279	0	31076	
6280	0	31107	
6281	0	31171	
6282	0	31165	
6283	0	31205	
6284	0	31251	
6285	0	31305	
6286	0	31322	
6287	0	31309	
6288	0	31152	
6289	0	31201	
6290	0	31170	
6291	0	31137	
6292	0	31145	
6293	0	31176	
6294	0	31289	
6295	0	31237	
6296	0	31197	
6297	0	31185	
6298	0	31204	
6299	0	31200	
6300	0	31261	
6301	0	31173	
6302	0	31161	
6303	0	31168	
6304	0	31273	
6305	0	31279	
6306	0	31340	
6307	0	31349	
6308	0	31303	
6309	0	31297	
6310	0	31327	
6311	0	31276	
6312	0	31195	
6313	0	31179	
6314	0	31193	
6315	0	31169	
6316	0	31189	
6317	0	31151	
6318	0	31133	
6319	0	31161	
6320	0	31201	
6321	0	31236	
6322	0	31221	
6323	0	31202	
6324	0	31231	
6325	0	31280	
6326	0	31337	
6327	0	31425	
6328	0	31339	
6329	0	31349	
6330	0	31263	
6331	0	31203	
6332	0	31156	
6333	0	31143	
6334	0	31205	
6335	0	31309	
6336	0	31264	
6337	0	31220	
6338	0	31221	
6339	0	31249	
6340	0	31297	
6341	0	31317	
6342	0	31369	
6343	0	31418	
6344	0	31485	
6345	0	31469	
6346	0	31463	
6347	0	31483	
6348	0	31345	
6349	0	31321	
6350	0	31257	
6351	0	31213	
6352	0	31285	
6353	0	31370	
6354	0	31421	
6355	0	31412	
6356	0	31435	
6357	0	31373	
6358	0	31441	
6359	0	31335	
6360	0	31333	
6361	0	31333	
6362	0	31284	
6363	0	31345	
6364	0	31396	
6365	0	31413	
6366	0	31397	
6367	0	31397	
6368	0	31388	
6369	0	31335	
6370	0	31325	
6371	0	31429	
6372	0	31421	
6373	0	31453	
6374	0	31421	
6375	0	31341	
6376	0	31340	
6377	0	31360	
6378	0	31423	
6379	0	31413	
6380	0	31417	
6381	0	31373	
6382	0	31311	
6383	0	31225	
6384	0	31257	
6385	0	31189	
6386	0	31229	
6387	0	31329	
6388	0	31332	
6389	0	31385	
6390	0	31286	
6391	0	31289	
6392	0	31278	
6393	0	31305	
6394	0	31297	
6395	0	31169	
6396	0	31208	
6397	0	31143	
6398	0	31161	
6399	0	31221	
6400	0	31245	
6401	0	31347	
6402	0	31420	
6403	0	31375	
6404	0	31430	
6405	0	31317	
6406	0	31269	
6407	0	31257	
6408	0	31297	
6409	0	31293	
6410	0	31259	
6411	0	31221	
6412	0	31241	
6413	0	31237	
6414	0	31212	
6415	0	31239	
6416	0	31283	
6417	0	31213	
6418	0	31264	
6419	0	31257	
6420	0	31239	
6421	0	31321	
6422	0	31371	
6423	0	31351	
6424	0	31339	
6425	0	31395	
6426	0	31393	
6427	0	31443	
6428	0	31421	
6429	0	31413	
6430	0	31437	
6431	0	31548	
6432	0	31447	
6433	0	31425	
6434	0	31365	
6435	0	31377	
6436	0	31427	
6437	0	31319	
6438	0	31367	
6439	0	31369	
6440	0	31414	
6441	0	31356	
6442	0	31453	
6443	0	31383	
6444	0	31351	
6445	0	31421	
6446	0	31357	
6447	0	31383	
6448	0	31408	
6449	0	31465	
6450	0	31417	
6451	0	31397	
6452	0	31328	
6453	0	31395	
6454	0	31417	
6455	0	31341	
6456	0	31320	
6457	0	31301	
6458	0	31291	
6459	0	31266	
6460	0	31245	
6461	0	31310	
6462	0	31297	
6463	0	31303	
6464	0	31348	
6465	0	31431	
6466	0	31545	
6467	0	31497	
6468	0	31542	
6469	0	31503	
6470	0	31421	
6471	0	31451	
6472	0	31407	
6473	0	31439	
6474	0	31453	
6475	0	31577	
6476	0	31553	
6477	0	31569	
6478	0	31504	
6479	0	31517	
6480	0	31488	
6481	0	31503	
6482	0	31529	
6483	0	31517	
6484	0	31557	
6485	0	31563	
6486	0	31603	
6487	0	31519	
6488	0	31527	
6489	0	31459	
6490	0	31508	
6491	0	31448	
6492	0	31457	
6493	0	31400	
6494	0	31407	
6495	0	31465	
6496	0	31453	
6497	0	31489	
6498	0	31437	
6499	0	31415	
6500	0	31391	
6501	0	31374	
6502	0	31360	
6503	0	31297	
6504	0	31348	
6505	0	31394	
6506	0	31437	
6507	0	31497	
6508	0	31509	
6509	0	31504	
6510	0	31453	
6511	0	31453	
6512	0	31397	
6513	0	31431	
6514	0	31369	
6515	0	31336	
6516	0	31311	
6517	0	31421	
6518	0	31433	
6519	0	31485	
6520	0	31475	
6521	0	31531	
6522	0	31485	
6523	0	31437	
6524	0	31441	
6525	0	31477	
6526	0	31483	
6527	0	31464	
6528	0	31509	
6529	0	31476	
6530	0	31549	
6531	0	31483	
6532	0	31431	
6533	0	31497	
6534	0	31447	
6535	0	31429	
6536	0	31419	
6537	0	31458	
6538	0	31455	
6539	0	31380	
6540	0	31325	
6541	0	31301	
6542	0	31314	
6543	0	31287	
6544	0	31268	
6545	0	31281	
6546	0	31455	
6547	0	31465	
6548	0	31448	
6549	0	31495	
6550	0	31447	
6551	0	31473	
6552	0	31462	
6553	0	31420	
6554	0	31447	
6555	0	31452	
6556	0	31468	
6557	0	31496	
6558	0	31437	
6559	0	31437	
6560	0	31381	
6561	0	31389	
6562	0	31444	
6563	0	31425	
6564	0	31497	
6565	0	31465	
6566	0	31441	
6567	0	31401	
6568	0	31349	
6569	0	31343	
6570	0	31293	
6571	0	31397	
6572	0	31354	
6573	0	31332	
6574	0	31319	
6575	0	31268	
6576	0	31218	
6577	0	31216	
6578	0	31237	
6579	0	31168	
6580	0	31129	
6581	0	31116	
6582	0	31188	
6583	0	31299	
6584	0	31260	
6585	0	31242	
6586	0	31172	
6587	0	31273	
6588	0	31244	
6589	0	31241	
6590	0	31301	
6591	0	31293	
6592	0	31322	
6593	0	31373	
6594	0	31374	
6595	0	31413	
6596	0	31380	
6597	0	31409	
6598	0	31381	
6599	0	31467	
6600	0	31491	
6601	0	31453	
6602	0	31473	
6603	0	31485	
6604	0	31460	
6605	0	31421	
6606	0	31548	
6607	0	31485	
6608	0	31535	
6609	0	31589	
6610	0	31560	
6611	0	31544	
6612	0	31585	
6613	0	31501	
6614	0	31481	
6615	0	31397	
6616	0	31325	
6617	0	31375	
6618	0	31409	
6619	0	31384	
6620	0	31383	
6621	0	31317	
6622	0	31281	
6623	0	31389	
6624	0	31451	
6625	0	31495	
6626	0	31511	
6627	0	31455	
6628	0	31460	
6629	0	31373	
6630	0	31361	
6631	0	31383	
6632	0	31409	
6633	0	31460	
6634	0	31436	
6635	0	31419	
6636	0	31425	
6637	0	31361	
6638	0	31294	
6639	0	31268	
6640	0	31253	
6641	0	31329	
6642	0	31389	
6643	0	31511	
6644	0	31527	
6645	0	31549	
6646	0	31477	
6647	0	31512	
6648	0	31497	
6649	0	31548	
6650	0	31545	
6651	0	31493	
6652	0	31422	
6653	0	31332	
6654	0	31297	
6655	0	31367	
6656	0	31423	
6657	0	31492	
6658	0	31481	
6659	0	31465	
6660	0	31471	
6661	0	31517	
6662	0	31529	
6663	0	31455	
6664	0	31488	
6665	0	31409	
6666	0	31453	
6667	0	31551	
6668	0	31551	
6669	0	31583	
6670	0	31624	
6671	0	31544	
6672	0	31521	
6673	0	31583	
6674	0	31529	
6675	0	31599	
6676	0	31580	
6677	0	31535	
6678	0	31476	
6679	0	31521	
6680	0	31538	
6681	0	31581	
6682	0	31505	
6683	0	31460	
6684	0	31379	
6685	0	31439	
6686	0	31424	
6687	0	31415	
6688	0	31373	
6689	0	31241	
6690	0	31281	
6691	0	31309	
6692	0	31273	
6693	0	31333	
6694	0	31460	
6695	0	31492	
6696	0	31524	
6697	0	31564	
6698	0	31657	
6699	0	31714	
6700	0	31644	
6701	0	31612	
6702	0	31605	
6703	0	31609	
6704	0	31596	
6705	0	31596	
6706	0	31636	
6707	0	31710	
6708	0	31757	
6709	0	31776	
6710	0	31747	
6711	0	31708	
6712	0	31691	
6713	0	31623	
6714	0	31669	
6715	0	31637	
6716	0	31567	
6717	0	31584	
6718	0	31593	
6719	0	31585	
6720	0	31629	
6721	0	31626	
6722	0	31634	
6723	0	31554	
6724	0	31556	
6725	0	31535	
6726	0	31511	
6727	0	31573	
6728	0	31529	
6729	0	31613	
6730	0	31648	
6731	0	31581	
6732	0	31567	
6733	0	31577	
6734	0	31628	
6735	0	31637	
6736	0	31605	
6737	0	31669	
6738	0	31761	
6739	0	31772	
6740	0	31713	
6741	0	31745	
6742	0	31689	
6743	0	31681	
6744	0	31549	
6745	0	31604	
6746	0	31560	
6747	0	31565	
6748	0	31621	
6749	0	31591	
6750	0	31603	
6751	0	31596	
6752	0	31616	
6753	0	31604	
6754	0	31631	
6755	0	31643	
6756	0	31579	
6757	0	31543	
6758	0	31613	
6759	0	31575	
6760	0	31540	
6761	0	31557	
6762	0	31535	
6763	0	31465	
6764	0	31481	
6765	0	31564	
6766	0	31519	
6767	0	31519	
6768	0	31621	
6769	0	31648	
6770	0	31620	
6771	0	31589	
6772	0	31561	
6773	0	31513	
6774	0	31511	
6775	0	31525	
6776	0	31527	
6777	0	31593	
6778	0	31556	
6779	0	31689	
6780	0	31690	
6781	0	31721	
6782	0	31809	
6783	0	31740	
6784	0	31696	
6785	0	31631	
6786	0	31540	
6787	0	31547	
6788	0	31543	
6789	0	31597	
6790	0	31617	
6791	0	31632	
6792	0	31596	
6793	0	31553	
6794	0	31645	
6795	0	31622	
6796	0	31585	
6797	0	31431	
6798	0	31420	
6799	0	31396	
6800	0	31408	
6801	0	31407	
6802	0	31396	
6803	0	31413	
6804	0	31489	
6805	0	31519	
6806	0	31623	
6807	0	31624	
6808	0	31611	
6809	0	31635	
6810	0	31559	
6811	0	31568	
6812	0	31605	
6813	0	31693	
6814	0	31703	
6815	0	31679	
6816	0	31643	
6817	0	31652	
6818	0	31572	
6819	0	31593	
6820	0	31609	
6821	0	31579	
6822	0	31585	
6823	0	31625	
6824	0	31644	
6825	0	31641	
6826	0	31593	
6827	0	31569	
6828	0	31557	
6829	0	31559	
6830	0	31561	
6831	0	31492	
6832	0	31561	
6833	0	31609	
6834	0	31608	
6835	0	31633	
6836	0	31621	
6837	0	31561	
6838	0	31567	
6839	0	31615	
6840	0	31596	
6841	0	31601	
6842	0	31529	
6843	0	31597	
6844	0	31635	
6845	0	31500	
6846	0	31432	
6847	0	31359	
6848	0	31365	
6849	0	31357	
6850	0	31359	
6851	0	31541	
6852	0	31627	
6853	0	31620	
6854	0	31683	
6855	0	31721	
6856	0	31853	
6857	0	31857	
6858	0	31851	
6859	0	31825	
6860	0	31801	
6861	0	31869	
6862	0	31953	
6863	0	31969	
6864	0	32011	
6865	0	32017	
6866	0	32012	
6867	0	32056	
6868	0	32235	
6869	0	32325	
6870	0	32351	
6871	0	32320	
6872	0	32357	
6873	0	32376	
6874	0	32343	
6875	0	32326	
6876	0	32309	
6877	0	32281	
6878	0	32299	
6879	0	32289	
6880	0	32263	
6881	0	32284	
6882	0	32240	
6883	0	32319	
6884	0	32267	
6885	0	32240	
6886	0	32261	
6887	0	32177	
6888	0	32117	
6889	0	32105	
6890	0	32013	
6891	0	31965	
6892	0	32041	
6893	0	31989	
6894	0	32097	
6895	0	31977	
6896	0	31969	
6897	0	31991	
6898	0	31983	
6899	0	31959	
6900	0	31952	
6901	0	32001	
6902	0	31946	
6903	0	31989	
6904	0	32005	
6905	0	31954	
6906	0	31937	
6907	0	31925	
6908	0	31828	
6909	0	31841	
6910	0	31812	
6911	0	31831	
6912	0	31855	
6913	0	31920	
6914	0	31908	
6915	0	31850	
6916	0	31849	
6917	0	31821	
6918	0	31837	
6919	0	31845	
6920	0	31909	
6921	0	31887	
6922	0	31909	
6923	0	31887	
6924	0	31863	
6925	0	31838	
6926	0	31777	
6927	0	31749	
6928	0	31818	
6929	0	31828	
6930	0	31900	
6931	0	31850	
6932	0	31764	
6933	0	31832	
6934	0	31875	
6935	0	31691	
6936	0	31735	
6937	0	31699	
6938	0	31751	
6939	0	31756	
6940	0	31732	
6941	0	31837	
6942	0	31909	
6943	0	31931	
6944	0	31943	
6945	0	31909	
6946	0	31969	
6947	0	31945	
6948	0	31926	
6949	0	31855	
6950	0	31892	
6951	0	31961	
6952	0	31932	
6953	0	31913	
6954	0	31895	
6955	0	31917	
6956	0	31879	
6957	0	31913	
6958	0	31905	
6959	0	31831	
6960	0	31809	
6961	0	31837	
6962	0	31807	
6963	0	31878	
6964	0	31869	
6965	0	31808	
6966	0	31837	
6967	0	31859	
6968	0	31929	
6969	0	31893	
6970	0	31864	
6971	0	31845	
6972	0	31818	
6973	0	31849	
6974	0	31789	
6975	0	31815	
6976	0	31815	
6977	0	31877	
6978	0	31947	
6979	0	31973	
6980	0	31975	
6981	0	31919	
6982	0	31888	
6983	0	31849	
6984	0	31848	
6985	0	31903	
6986	0	31895	
6987	0	31941	
6988	0	31919	
6989	0	31911	
6990	0	31829	
6991	0	31843	
6992	0	31925	
6993	0	31957	
6994	0	31961	
6995	0	31873	
6996	0	31883	
6997	0	31901	
6998	0	31927	
6999	0	31934	
7000	0	31905	
7001	0	31940	
7002	0	31932	
7003	0	31977	
7004	0	32043	
7005	0	32103	
7006	0	32063	
7007	0	32054	
7008	0	31993	
7009	0	31917	
7010	0	31981	
7011	0	31933	
7012	0	31877	
7013	0	31892	
7014	0	31888	
7015	0	31937	
7016	0	31893	
7017	0	31817	
7018	0	31905	
7019	0	31948	
7020	0	31968	
7021	0	31961	
7022	0	31965	
7023	0	31957	
7024	0	31913	
7025	0	31873	
7026	0	31940	
7027	0	31908	
7028	0	32044	
7029	0	32052	
7030	0	31922	
7031	0	31917	
7032	0	31843	
7033	0	31887	
7034	0	31872	
7035	0	31927	
7036	0	31937	
7037	0	31973	
7038	0	31885	
7039	0	31823	
7040	0	31764	
7041	0	31701	
7042	0	31707	
7043	0	31751	
7044	0	31693	
7045	0	31785	
7046	0	31801	
7047	0	31900	
7048	0	31852	
7049	0	31799	
7050	0	31833	
7051	0	31736	
7052	0	31725	
7053	0	31755	
7054	0	31629	
7055	0	31576	
7056	0	31577	
7057	0	31645	
7058	0	31708	
7059	0	31719	
7060	0	31780	
7061	0	31705	
7062	0	31684	
7063	0	31757	
7064	0	31799	
7065	0	31836	
7066	0	31869	
7067	0	31913	
7068	0	31860	
7069	0	31849	
7070	0	31797	
7071	0	31825	
7072	0	31805	
7073	0	31768	
7074	0	31816	
7075	0	31919	
7076	0	31933	
7077	0	31961	
7078	0	31981	
7079	0	32024	
7080	0	32103	
7081	0	32089	
7082	0	32069	
7083	0	32089	
7084	0	32085	
7085	0	32153	
7086	0	32193	
7087	0	32265	
7088	0	32211	
7089	0	32257	
7090	0	32316	
7091	0	32325	
7092	0	32328	
7093	0	32277	
7094	0	32304	
7095	0	32321	
7096	0	32348	
7097	0	32349	
7098	0	32268	
7099	0	32277	
7100	0	32252	
7101	0	32299	
7102	0	32272	
7103	0	32309	
7104	0	32229	
7105	0	32271	
7106	0	32197	
7107	0	32259	
7108	0	32281	
7109	0	32221	
7110	0	32289	
7111	0	32300	
7112	0	32333	
7113	0	32357	
7114	0	32360	
7115	0	32373	
7116	0	32303	
7117	0	32270	
7118	0	32195	
7119	0	32025	
7120	0	32039	
7121	0	32107	
7122	0	32119	
7123	0	32071	
7124	0	32117	
7125	0	32064	
7126	0	32012	
7127	0	31997	
7128	0	32032	
7129	0	32041	
7130	0	32059	
7131	0	32016	
7132	0	31951	
7133	0	32011	
7134	0	32137	
7135	0	32214	
7136	0	32289	
7137	0	32260	
7138	0	32256	
7139	0	32127	
7140	0	32124	
7141	0	32089	
7142	0	32064	
7143	0	32039	
7144	0	31997	
7145	0	32037	
7146	0	32079	
7147	0	32035	
7148	0	32151	
7149	0	32244	
7150	0	32271	
7151	0	32327	
7152	0	32361	
7153	0	32361	
7154	0	32409	
7155	0	32407	
7156	0	32448	
7157	0	32472	
7158	0	32460	
7159	0	32509	
7160	0	32508	
7161	0	32564	
7162	0	32569	
7163	0	32613	
7164	0	32665	
7165	0	32615	
7166	0	32657	
7167	0	32577	
7168	0	32593	
7169	0	32555	
7170	0	32510	
7171	0	32543	
7172	0	32512	
7173	0	32435	
7174	0	32513	
7175	0	32643	
7176	0	32655	
7177	0	32567	
7178	0	32637	
7179	0	32549	
7180	0	32503	
7181	0	32461	
7182	0	32539	
7183	0	32592	
7184	0	32674	
7185	0	32545	
7186	0	32503	
7187	0	32536	
7188	0	32564	
7189	0	32551	
7190	0	32591	
7191	0	32585	
7192	0	32577	
7193	0	32493	
7194	0	32477	
7195	0	32517	
7196	0	32520	
7197	0	32432	
7198	0	32477	
7199	0	32511	
7200	0	32480	
7201	0	32427	
7202	0	32364	
7203	0	32307	
7204	0	32364	
7205	0	32412	
7206	0	32493	
7207	0	32452	
7208	0	32425	
7209	0	32372	
7210	0	32313	
7211	0	32356	
7212	0	32357	
7213	0	32281	
7214	0	32229	
7215	0	32204	
7216	0	32137	
7217	0	32155	
7218	0	32180	
7219	0	32236	
7220	0	32337	
7221	0	32367	
7222	0	32399	
7223	0	32381	
7224	0	32388	
7225	0	32373	
7226	0	32277	
7227	0	32113	
7228	0	32189	
7229	0	32201	
7230	0	32143	
7231	0	32133	
7232	0	32113	
7233	0	32135	
7234	0	32109	
7235	0	32069	
7236	0	32077	
7237	0	32127	
7238	0	32165	
7239	0	32117	
7240	0	32189	
7241	0	32205	
7242	0	32119	
7243	0	32159	
7244	0	32085	
7245	0	32097	
7246	0	32015	
7247	0	32007	
7248	0	32021	
7249	0	32041	
7250	0	32045	
7251	0	32081	
7252	0	32059	
7253	0	32095	
7254	0	32155	
7255	0	32151	
7256	0	32105	
7257	0	32136	
7258	0	32108	
7259	0	32050	
7260	0	32017	
7261	0	32065	
7262	0	32063	
7263	0	32144	
7264	0	32168	
7265	0	32221	
7266	0	32189	
7267	0	32221	
7268	0	32303	
7269	0	32317	
7270	0	32336	
7271	0	32289	
7272	0	32273	
7273	0	32353	
7274	0	32377	
7275	0	32420	
7276	0	32448	
7277	0	32483	
7278	0	32460	
7279	0	32433	
7280	0	32388	
7281	0	32445	
7282	0	32460	
7283	0	32529	
7284	0	32476	
7285	0	32455	
7286	0	32439	
7287	0	32449	
7288	0	32441	
7289	0	32393	
7290	0	32441	
7291	0	32385	
7292	0	32373	
7293	0	32317	
7294	0	32251	
7295	0	32261	
7296	0	32291	
7297	0	32320	
7298	0	32335	
7299	0	32345	
7300	0	32301	
7301	0	32309	
7302	0	32437	
7303	0	32529	
7304	0	32501	
7305	0	32509	
7306	0	32413	
7307	0	32332	
7308	0	32331	
7309	0	32361	
7310	0	32268	
7311	0	32316	
7312	0	32229	
7313	0	32312	
7314	0	32325	
7315	0	32361	
7316	0	32356	
7317	0	32335	
7318	0	32269	
7319	0	32323	
7320	0	32301	
7321	0	32297	
7322	0	32333	
7323	0	32343	
7324	0	32317	
7325	0	32313	
7326	0	32332	
7327	0	32235	
7328	0	32267	
7329	0	32257	
7330	0	32197	
7331	0	32156	
7332	0	32172	
7333	0	32154	
7334	0	32148	
7335	0	32193	
7336	0	32273	
7337	0	32375	
7338	0	32333	
7339	0	32337	
7340	0	32341	
7341	0	32356	
7342	0	32305	
7343	0	32276	
7344	0	32287	
7345	0	32289	
7346	0	32281	
7347	0	32297	
7348	0	32389	
7349	0	32404	
7350	0	32389	
7351	0	32311	
7352	0	32280	
7353	0	32292	
7354	0	32344	
7355	0	32244	
7356	0	32247	
7357	0	32233	
7358	0	32287	
7359	0	32328	
7360	0	32315	
7361	0	32285	
7362	0	32338	
7363	0	32348	
7364	0	32348	
7365	0	32325	
7366	0	32457	
7367	0	32413	
7368	0	32436	
7369	0	32413	
7370	0	32473	
7371	0	32495	
7372	0	32536	
7373	0	32532	
7374	0	32601	
7375	0	32656	
7376	0	32673	
7377	0	32576	
7378	0	32653	
7379	0	32673	
7380	0	32620	
7381	0	32724	
7382	0	32661	
7383	0	32647	
7384	0	32648	
7385	0	32639	
7386	0	32681	
7387	0	32607	
7388	0	32575	
7389	0	32548	
7390	0	32609	
7391	0	32609	
7392	0	32589	
7393	0	32629	
7394	0	32645	
7395	0	32654	
7396	0	32707	
7397	0	32674	
7398	0	32775	
7399	0	32809	
7400	0	32784	
7401	0	32787	
7402	0	32793	
7403	0	32771	
7404	0	32636	
7405	0	32537	
7406	0	32528	
7407	0	32563	
7408	0	32597	
7409	0	32609	
7410	0	32588	
7411	0	32655	
7412	0	32647	
7413	0	32613	
7414	0	32581	
7415	0	32485	
7416	0	32479	
7417	0	32525	
7418	0	32564	
7419	0	32625	
7420	0	32693	
7421	0	32721	
7422	0	32677	
7423	0	32685	
7424	0	32663	
7425	0	32633	
7426	0	32541	
7427	0	32521	
7428	0	32475	
7429	0	32489	
7430	0	32527	
7431	0	32503	
7432	0	32533	
7433	0	32453	
7434	0	32485	
7435	0	32505	
7436	0	32551	
7437	0	32560	
7438	0	32456	
7439	0	32425	
7440	0	32513	
7441	0	32615	
7442	0	32637	
7443	0	32657	
7444	0	32541	
7445	0	32469	
7446	0	32527	
7447	0	32385	
7448	0	32337	
7449	0	32345	
7450	0	32357	
7451	0	32364	
7452	0	32373	
7453	0	32471	
7454	0	32489	
7455	0	32505	
7456	0	32593	
7457	0	32531	
7458	0	32530	
7459	0	32484	
7460	0	32432	
7461	0	32489	
7462	0	32553	
7463	0	32449	
7464	0	32481	
7465	0	32556	
7466	0	32531	
7467	0	32581	
7468	0	32623	
7469	0	32561	
7470	0	32607	
7471	0	32545	
7472	0	32547	
7473	0	32417	
7474	0	32413	
7475	0	32463	
7476	0	32489	
7477	0	32540	
7478	0	32517	
7479	0	32557	
7480	0	32548	
7481	0	32516	
7482	0	32524	
7483	0	32655	
7484	0	32650	
7485	0	32736	
7486	0	32763	
7487	0	32733	
7488	0	32645	
7489	0	32620	
7490	0	32559	
7491	0	32504	
7492	0	32445	
7493	0	32463	
7494	0	32475	
7495	0	32441	
7496	0	32507	
7497	0	32476	
7498	0	32505	
7499	0	32565	
7500	0	32601	
7501	0	32605	
7502	0	32704	
7503	0	32665	
7504	0	32669	
7505	0	32704	
7506	0	32570	
7507	0	32495	
7508	0	32424	
7509	0	32501	
7510	0	32543	
7511	0	32501	
7512	0	32498	
7513	0	32497	
7514	0	32417	
7515	0	32383	
7516	0	32417	
7517	0	32465	
7518	0	32473	
7519	0	32467	
7520	0	32505	
7521	0	32527	
7522	0	32445	
7523	0	32373	
7524	0	32357	
7525	0	32308	
7526	0	32325	
7527	0	32365	
7528	0	32377	
7529	0	32357	
7530	0	32355	
7531	0	32308	
7532	0	32201	
7533	0	32205	
7534	0	32253	
7535	0	32298	
7536	0	32357	
7537	0	32413	
7538	0	32359	
7539	0	32383	
7540	0	32409	
7541	0	32388	
7542	0	32357	
7543	0	32407	
7544	0	32373	
7545	0	32383	
7546	0	32364	
7547	0	32389	
7548	0	32283	
7549	0	32323	
7550	0	32305	
7551	0	32292	
7552	0	32341	
7553	0	32385	
7554	0	32455	
7555	0	32437	
7556	0	32472	
7557	0	32484	
7558	0	32537	
7559	0	32599	
7560	0	32647	
7561	0	32609	
7562	0	32552	
7563	0	32501	
7564	0	32531	
7565	0	32503	
7566	0	32465	
7567	0	32444	
7568	0	32500	
7569	0	32459	
7570	0	32423	
7571	0	32391	
7572	0	32417	
7573	0	32407	
7574	0	32365	
7575	0	32317	
7576	0	32336	
7577	0	32395	
7578	0	32468	
7579	0	32511	
7580	0	32492	
7581	0	32460	
7582	0	32439	
7583	0	32438	
7584	0	32397	
7585	0	32356	
7586	0	32337	
7587	0	32380	
7588	0	32361	
7589	0	32369	
7590	0	32405	
7591	0	32363	
7592	0	32412	
7593	0	32437	
7594	0	32445	
7595	0	32385	
7596	0	32377	
7597	0	32383	
7598	0	32375	
7599	0	32413	
7600	0	32445	
7601	0	32391	
7602	0	32356	
7603	0	32364	
7604	0	32405	
7605	0	32349	
7606	0	32375	
7607	0	32465	
7608	0	32393	
7609	0	32349	
7610	0	32367	
7611	0	32377	
7612	0	32333	
7613	0	32292	
7614	0	32320	
7615	0	32316	
7616	0	32445	
7617	0	32528	
7618	0	32569	
7619	0	32581	
7620	0	32564	
7621	0	32622	
7622	0	32549	
7623	0	32583	
7624	0	32541	
7625	0	32508	
7626	0	32487	
7627	0	32544	
7628	0	32569	
7629	0	32571	
7630	0	32583	
7631	0	32615	
7632	0	32607	
7633	0	32619	
7634	0	32628	
7635	0	32579	
7636	0	32612	
7637	0	32652	
7638	0	32712	
7639	0	32711	
7640	0	32769	
7641	0	32804	
7642	0	32832	
7643	0	32820	
7644	0	32660	
7645	0	32703	
7646	0	32772	
7647	0	32705	
7648	0	32684	
7649	0	32685	
7650	0	32797	
7651	0	32715	
7652	0	32706	
7653	0	32697	
7654	0	32709	
7655	0	32757	
7656	0	32717	
7657	0	32684	
7658	0	32711	
7659	0	32592	
7660	0	32565	
7661	0	32556	
7662	0	32645	
7663	0	32706	
7664	0	32776	
7665	0	32804	
7666	0	32831	
7667	0	32757	
7668	0	32725	
7669	0	32705	
7670	0	32656	
7671	0	32697	
7672	0	32669	
7673	0	32653	
7674	0	32686	
7675	0	32655	
7676	0	32733	
7677	0	32753	
7678	0	32753	
7679	0	32832	
7680	0	32913	
7681	0	32861	
7682	0	32825	
7683	0	32701	
7684	0	32597	
7685	0	32500	
7686	0	32529	
7687	0	32529	
7688	0	32439	
7689	0	32513	
7690	0	32582	
7691	0	32677	
7692	0	32587	
7693	0	32497	
7694	0	32389	
7695	0	32399	
7696	0	32381	
7697	0	32349	
7698	0	32337	
7699	0	32285	
7700	0	32293	
7701	0	32265	
7702	0	32284	
7703	0	32309	
7704	0	32409	
7705	0	32381	
7706	0	32301	
7707	0	32260	
7708	0	32297	
7709	0	32293	
7710	0	32285	
7711	0	32255	
7712	0	32237	
7713	0	32289	
7714	0	32253	
7715	0	32164	
7716	0	32181	
7717	0	32165	
7718	0	32140	
7719	0	32137	
7720	0	32159	
7721	0	32141	
7722	0	32184	
7723	0	32201	
7724	0	32271	
7725	0	32329	
7726	0	32333	
7727	0	32365	
7728	0	32412	
7729	0	32379	
7730	0	32343	
7731	0	32404	
7732	0	32431	
7733	0	32361	
7734	0	32321	
7735	0	32324	
7736	0	32285	
7737	0	32277	
7738	0	32364	
7739	0	32412	
7740	0	32573	
7741	0	32492	
7742	0	32465	
7743	0	32449	
7744	0	32540	
7745	0	32525	
7746	0	32517	
7747	0	32413	
7748	0	32481	
7749	0	32525	
7750	0	32588	
7751	0	32597	
7752	0	32589	
7753	0	32593	
7754	0	32577	
7755	0	32481	
7756	0	32463	
7757	0	32477	
7758	0	32436	
7759	0	32468	
7760	0	32461	
7761	0	32495	
7762	0	32487	
7763	0	32532	
7764	0	32589	
7765	0	32629	
7766	0	32577	
7767	0	32564	
7768	0	32541	
7769	0	32501	
7770	0	32480	
7771	0	32550	
7772	0	32647	
7773	0	32621	
7774	0	32635	
7775	0	32676	
7776	0	32619	
7777	0	32613	
7778	0	32647	
7779	0	32676	
7780	0	32644	
7781	0	32635	
7782	0	32573	
7783	0	32621	
7784	0	32580	
7785	0	32459	
7786	0	32495	
7787	0	32479	
7788	0	32513	
7789	0	32505	
7790	0	32519	
7791	0	32540	
7792	0	32449	
7793	0	32429	
7794	0	32481	
7795	0	32369	
7796	0	32356	
7797	0	32299	
7798	0	32173	
7799	0	32157	
7800	0	32193	
7801	0	32259	
7802	0	32312	
7803	0	32352	
7804	0	32419	
7805	0	32421	
7806	0	32358	
7807	0	32380	
7808	0	32392	
7809	0	32445	
7810	0	32463	
7811	0	32497	
7812	0	32564	
7813	0	32523	
7814	0	32495	
7815	0	32480	
7816	0	32569	
7817	0	32545	
7818	0	32535	
7819	0	32561	
7820	0	32585	
7821	0	32629	
7822	0	32604	
7823	0	32672	
7824	0	32652	
7825	0	32671	
7826	0	32631	
7827	0	32602	
7828	0	32529	
7829	0	32500	
7830	0	32537	
7831	0	32471	
7832	0	32465	
7833	0	32452	
7834	0	32480	
7835	0	32477	
7836	0	32497	
7837	0	32421	
7838	0	32425	
7839	0	32361	
7840	0	32265	
7841	0	32261	
7842	0	32223	
7843	0	32309	
7844	0	32335	
7845	0	32313	
7846	0	32281	
7847	0	32309	
7848	0	32385	
7849	0	32365	
7850	0	32489	
7851	0	32489	
7852	0	32449	
7853	0	32337	
7854	0	32213	
7855	0	32219	
7856	0	32320	
7857	0	32299	
7858	0	32381	
7859	0	32356	
7860	0	32357	
7861	0	32305	
7862	0	32305	
7863	0	32277	
7864	0	32341	
7865	0	32381	
7866	0	32381	
7867	0	32384	
7868	0	32372	
7869	0	32440	
7870	0	32365	
7871	0	32309	
7872	0	32317	
7873	0	32295	
7874	0	32352	
7875	0	32388	
7876	0	32353	
7877	0	32383	
7878	0	32421	
7879	0	32424	
7880	0	32440	
7881	0	32504	
7882	0	32583	
7883	0	32705	
7884	0	32690	
7885	0	32739	
7886	0	32712	
7887	0	32769	
7888	0	32823	
7889	0	32820	
7890	0	32840	
7891	0	32908	
7892	0	32989	
7893	0	33053	
7894	0	33133	
7895	0	33217	
7896	0	33253	
7897	0	33277	
7898	0	33359	
7899	0	33439	
7900	0	33364	
7901	0	33429	
7902	0	33357	
7903	0	33325	
7904	0	33348	
7905	0	33319	
7906	0	33292	
7907	0	33229	
7908	0	33195	
7909	0	33116	
7910	0	33127	
7911	0	33152	
7912	0	33172	
7913	0	33153	
7914	0	33061	
7915	0	33015	
7916	0	33010	
7917	0	33007	
7918	0	33071	
7919	0	33089	
7920	0	32969	
7921	0	32955	
7922	0	32937	
7923	0	32921	
7924	0	32879	
7925	0	32789	
7926	0	32805	
7927	0	32751	
7928	0	32653	
7929	0	32615	
7930	0	32669	
7931	0	32724	
7932	0	32708	
7933	0	32749	
7934	0	32737	
7935	0	32692	
7936	0	32661	
7937	0	32661	
7938	0	32669	
7939	0	32581	
7940	0	32595	
7941	0	32617	
7942	0	32599	
7943	0	32533	
7944	0	32564	
7945	0	32481	
7946	0	32481	
7947	0	32417	
7948	0	32345	
7949	0	32375	
7950	0	32461	
7951	0	32461	
7952	0	32445	
7953	0	32365	
7954	0	32373	
7955	0	32493	
7956	0	32551	
7957	0	32517	
7958	0	32559	
7959	0	32448	
7960	0	32459	
7961	0	32325	
7962	0	32329	
7963	0	32333	
7964	0	32329	
7965	0	32334	
7966	0	32413	
7967	0	32389	
7968	0	32367	
7969	0	32301	
7970	0	32315	
7971	0	32364	
7972	0	32337	
7973	0	32331	
7974	0	32477	
7975	0	32501	
7976	0	32513	
7977	0	32425	
7978	0	32469	
7979	0	32429	
7980	0	32475	
7981	0	32503	
7982	0	32464	
7983	0	32541	
7984	0	32467	
7985	0	32473	
7986	0	32424	
7987	0	32469	
7988	0	32372	
7989	0	32366	
7990	0	32452	
7991	0	32514	
7992	0	32485	
7993	0	32567	
7994	0	32512	
7995	0	32561	
7996	0	32505	
7997	0	32383	
7998	0	32405	
7999	0	32341	
8000	0	32409	
8001	0	32449	
8002	0	32438	
8003	0	32449	
8004	0	32449	
8005	0	32425	
8006	0	32433	
8007	0	32373	
8008	0	32425	
8009	0	32368	
8010	0	32391	
8011	0	32415	
8012	0	32445	
8013	0	32493	
8014	0	32471	
8015	0	32502	
8016	0	32607	
8017	0	32565	
8018	0	32436	
8019	0	32389	
8020	0	32303	
8021	0	32301	
8022	0	32317	
8023	0	32439	
8024	0	32503	
8025	0	32577	
8026	0	32549	
8027	0	32543	
8028	0	32583	
8029	0	32625	
8030	0	32565	
8031	0	32633	
8032	0	32645	
8033	0	32609	
