# OpenSignals Text File Format. Version 1
# {"00:07:80:F9:DD:B8": {"position": 0, "device": "biosignalsplux", "device name": "00:07:80:F9:DD:B8", "device connection": "BTH00:07:80:F9:DD:B8", "sampling rate": 1000, "resolution": [16], "firmware version": 773, "comments": "Sample EOG Signal: Monitoring vertical eye movement (looking up and down)", "keywords": "", "mode": 0, "sync interval": 2, "date": "2020-4-17", "time": "11:25:53.958", "channels": [1], "sensor": ["EOG"], "label": ["EOG"], "column": ["nSeq", "DI", "EOG"], "special": [{}], "digital IO": [0, 1]}}
# EndOfHeader
0	0	33022	
1	0	33076	
2	0	33159	
3	0	33262	
4	0	33308	
5	0	33245	
6	0	33189	
7	0	33185	
8	0	33247	
9	0	33247	
10	0	33297	
11	0	33313	
12	0	33321	
13	0	33277	
14	0	33269	
15	0	33325	
16	0	33297	
17	0	33297	
18	0	33188	
19	0	33156	
20	0	33188	
21	0	33169	
22	0	33279	
23	0	33287	
24	0	33213	
25	0	33105	
26	0	33132	
27	0	33095	
28	0	32953	
29	0	32907	
30	0	32913	
31	0	32929	
32	0	32861	
33	0	32813	
34	0	32713	
35	0	32705	
36	0	32727	
37	0	32768	
38	0	32765	
39	0	32756	
40	0	32780	
41	0	32804	
42	0	32792	
43	0	32739	
44	0	32722	
45	0	32772	
46	0	32771	
47	0	32839	
48	0	32833	
49	0	32833	
50	0	32868	
51	0	32813	
52	0	32705	
53	0	32597	
54	0	32549	
55	0	32597	
56	0	32689	
57	0	32749	
58	0	32661	
59	0	32785	
60	0	32849	
61	0	32848	
62	0	32887	
63	0	32877	
64	0	32799	
65	0	32737	
66	0	32738	
67	0	32597	
68	0	32588	
69	0	32661	
70	0	32760	
71	0	32713	
72	0	32669	
73	0	32593	
74	0	32660	
75	0	32771	
76	0	32844	
77	0	32855	
78	0	32827	
79	0	32833	
80	0	32731	
81	0	32752	
82	0	32677	
83	0	32752	
84	0	32655	
85	0	32643	
86	0	32601	
87	0	32657	
88	0	32736	
89	0	32705	
90	0	32732	
91	0	32742	
92	0	32747	
93	0	32736	
94	0	32645	
95	0	32687	
96	0	32651	
97	0	32612	
98	0	32719	
99	0	32737	
100	0	32778	
101	0	32756	
102	0	32771	
103	0	32767	
104	0	32769	
105	0	32657	
106	0	32652	
107	0	32682	
108	0	32688	
109	0	32717	
110	0	32768	
111	0	32773	
112	0	32636	
113	0	32609	
114	0	32748	
115	0	32649	
116	0	32692	
117	0	32676	
118	0	32719	
119	0	32696	
120	0	32725	
121	0	32793	
122	0	32811	
123	0	32860	
124	0	32895	
125	0	32909	
126	0	32897	
127	0	32809	
128	0	32718	
129	0	32799	
130	0	32761	
131	0	32751	
132	0	32765	
133	0	32768	
134	0	32751	
135	0	32737	
136	0	32841	
137	0	32989	
138	0	32973	
139	0	32917	
140	0	32893	
141	0	32857	
142	0	32789	
143	0	32765	
144	0	32796	
145	0	32799	
146	0	32722	
147	0	32728	
148	0	32773	
149	0	32756	
150	0	32933	
151	0	32972	
152	0	32977	
153	0	33019	
154	0	33103	
155	0	33009	
156	0	33033	
157	0	32989	
158	0	32959	
159	0	32920	
160	0	33005	
161	0	33037	
162	0	33155	
163	0	33045	
164	0	32981	
165	0	33036	
166	0	33011	
167	0	32932	
168	0	32831	
169	0	32719	
170	0	32645	
171	0	32703	
172	0	32820	
173	0	32793	
174	0	32855	
175	0	33017	
176	0	33077	
177	0	32853	
178	0	32825	
179	0	32885	
180	0	32895	
181	0	32941	
182	0	32997	
183	0	32893	
184	0	32809	
185	0	32751	
186	0	32713	
187	0	32697	
188	0	32637	
189	0	32721	
190	0	32801	
191	0	32868	
192	0	32861	
193	0	32773	
194	0	32925	
195	0	32921	
196	0	32932	
197	0	32893	
198	0	32843	
199	0	32876	
200	0	32889	
201	0	32829	
202	0	32933	
203	0	32967	
204	0	32961	
205	0	32988	
206	0	32952	
207	0	32988	
208	0	32980	
209	0	32980	
210	0	32981	
211	0	32892	
212	0	32929	
213	0	33009	
214	0	33188	
215	0	33301	
216	0	33245	
217	0	33193	
218	0	33041	
219	0	32953	
220	0	32993	
221	0	33094	
222	0	33357	
223	0	33267	
224	0	33012	
225	0	32853	
226	0	32759	
227	0	32803	
228	0	32857	
229	0	32985	
230	0	33117	
231	0	33316	
232	0	33269	
233	0	33260	
234	0	33177	
235	0	32965	
236	0	32932	
237	0	32973	
238	0	33165	
239	0	33043	
240	0	32896	
241	0	32841	
242	0	32789	
243	0	32741	
244	0	32833	
245	0	32898	
246	0	32921	
247	0	32836	
248	0	32835	
249	0	32839	
250	0	32873	
251	0	32960	
252	0	33005	
253	0	33041	
254	0	33009	
255	0	32930	
256	0	33019	
257	0	33028	
258	0	33008	
259	0	32947	
260	0	33073	
261	0	33113	
262	0	33175	
263	0	33284	
264	0	33260	
265	0	33232	
266	0	33325	
267	0	33261	
268	0	33117	
269	0	32877	
270	0	32812	
271	0	32884	
272	0	32900	
273	0	32821	
274	0	32779	
275	0	32839	
276	0	32785	
277	0	32825	
278	0	32908	
279	0	33005	
280	0	33203	
281	0	33291	
282	0	32965	
283	0	32905	
284	0	32965	
285	0	32817	
286	0	32751	
287	0	32821	
288	0	32953	
289	0	33013	
290	0	32984	
291	0	32888	
292	0	32884	
293	0	32932	
294	0	32893	
295	0	32829	
296	0	32812	
297	0	32783	
298	0	32857	
299	0	32868	
300	0	32751	
301	0	32889	
302	0	33023	
303	0	33055	
304	0	32852	
305	0	32903	
306	0	32933	
307	0	33189	
308	0	33120	
309	0	32727	
310	0	32621	
311	0	32625	
312	0	32717	
313	0	32789	
314	0	32952	
315	0	33061	
316	0	32959	
317	0	32900	
318	0	32897	
319	0	32819	
320	0	32791	
321	0	32964	
322	0	32989	
323	0	32989	
324	0	32909	
325	0	32860	
326	0	32797	
327	0	32879	
328	0	32933	
329	0	32911	
330	0	32976	
331	0	33069	
332	0	33109	
333	0	33047	
334	0	33003	
335	0	33164	
336	0	33141	
337	0	33121	
338	0	32999	
339	0	32822	
340	0	32776	
341	0	32695	
342	0	32621	
343	0	32655	
344	0	32708	
345	0	32783	
346	0	32851	
347	0	32829	
348	0	32821	
349	0	32917	
350	0	32907	
351	0	33007	
352	0	33025	
353	0	32977	
354	0	32937	
355	0	32820	
356	0	32572	
357	0	32452	
358	0	32459	
359	0	32465	
360	0	32545	
361	0	32572	
362	0	32655	
363	0	32681	
364	0	32705	
365	0	32617	
366	0	32629	
367	0	32720	
368	0	32791	
369	0	32840	
370	0	32835	
371	0	32791	
372	0	32818	
373	0	32900	
374	0	32908	
375	0	33013	
376	0	32916	
377	0	32809	
378	0	32633	
379	0	32685	
380	0	32884	
381	0	33036	
382	0	33037	
383	0	33073	
384	0	33221	
385	0	33486	
386	0	33300	
387	0	32961	
388	0	32868	
389	0	32795	
390	0	32824	
391	0	32728	
392	0	32733	
393	0	32817	
394	0	32908	
395	0	32805	
396	0	32635	
397	0	32901	
398	0	32981	
399	0	32885	
400	0	33061	
401	0	33241	
402	0	33239	
403	0	33045	
404	0	32985	
405	0	33141	
406	0	32900	
407	0	32823	
408	0	32661	
409	0	32671	
410	0	32552	
411	0	32478	
412	0	32725	
413	0	32785	
414	0	32839	
415	0	33045	
416	0	33121	
417	0	32929	
418	0	32828	
419	0	32873	
420	0	33009	
421	0	32889	
422	0	32751	
423	0	32788	
424	0	32901	
425	0	32917	
426	0	32919	
427	0	32865	
428	0	32871	
429	0	32929	
430	0	32918	
431	0	32919	
432	0	33005	
433	0	32865	
434	0	32829	
435	0	32837	
436	0	32892	
437	0	32853	
438	0	32853	
439	0	33009	
440	0	33023	
441	0	32981	
442	0	32961	
443	0	33021	
444	0	33048	
445	0	33177	
446	0	33257	
447	0	33163	
448	0	33037	
449	0	32917	
450	0	32925	
451	0	32972	
452	0	33041	
453	0	32996	
454	0	32837	
455	0	32825	
456	0	32839	
457	0	32724	
458	0	32737	
459	0	32937	
460	0	33063	
461	0	33041	
462	0	33076	
463	0	32944	
464	0	32833	
465	0	32785	
466	0	32764	
467	0	32785	
468	0	32760	
469	0	32861	
470	0	32872	
471	0	32867	
472	0	32823	
473	0	32773	
474	0	32741	
475	0	32601	
476	0	32625	
477	0	32697	
478	0	32789	
479	0	32720	
480	0	32734	
481	0	32856	
482	0	32859	
483	0	32855	
484	0	32931	
485	0	32972	
486	0	33009	
487	0	33060	
488	0	33051	
489	0	33071	
490	0	33014	
491	0	32937	
492	0	32846	
493	0	32913	
494	0	32943	
495	0	32925	
496	0	32965	
497	0	32915	
498	0	32924	
499	0	32897	
500	0	32879	
501	0	32769	
502	0	32814	
503	0	32889	
504	0	32983	
505	0	32983	
506	0	33105	
507	0	33143	
508	0	33005	
509	0	32951	
510	0	33037	
511	0	33006	
512	0	32913	
513	0	32881	
514	0	32919	
515	0	32951	
516	0	33029	
517	0	33063	
518	0	33047	
519	0	32961	
520	0	32917	
521	0	32892	
522	0	32857	
523	0	32763	
524	0	32796	
525	0	32845	
526	0	32805	
527	0	32849	
528	0	32849	
529	0	32881	
530	0	32944	
531	0	33044	
532	0	32961	
533	0	32917	
534	0	32999	
535	0	33013	
536	0	32989	
537	0	32951	
538	0	32901	
539	0	32905	
540	0	32893	
541	0	32876	
542	0	32937	
543	0	32940	
544	0	32992	
545	0	33061	
546	0	33012	
547	0	33041	
548	0	32975	
549	0	32969	
550	0	32833	
551	0	32845	
552	0	32820	
553	0	32813	
554	0	32733	
555	0	32813	
556	0	32937	
557	0	32986	
558	0	33029	
559	0	33012	
560	0	32961	
561	0	33039	
562	0	33039	
563	0	33125	
564	0	33045	
565	0	33085	
566	0	33154	
567	0	33177	
568	0	33153	
569	0	33124	
570	0	33065	
571	0	33047	
572	0	33110	
573	0	33071	
574	0	33109	
575	0	32969	
576	0	32931	
577	0	32927	
578	0	32981	
579	0	33021	
580	0	32967	
581	0	32919	
582	0	32969	
583	0	32964	
584	0	32985	
585	0	32957	
586	0	32917	
587	0	33039	
588	0	33012	
589	0	33108	
590	0	32964	
591	0	32924	
592	0	32899	
593	0	32837	
594	0	32876	
595	0	32935	
596	0	33057	
597	0	33031	
598	0	33019	
599	0	33135	
600	0	33165	
601	0	33133	
602	0	33072	
603	0	33060	
604	0	33053	
605	0	32973	
606	0	32955	
607	0	33047	
608	0	33109	
609	0	33168	
610	0	33132	
611	0	33072	
612	0	33004	
613	0	32927	
614	0	32893	
615	0	32901	
616	0	32917	
617	0	32973	
618	0	32921	
619	0	32932	
620	0	32997	
621	0	33005	
622	0	33023	
623	0	33047	
624	0	33016	
625	0	33068	
626	0	33063	
627	0	33076	
628	0	33108	
629	0	33085	
630	0	33172	
631	0	33201	
632	0	33225	
633	0	33188	
634	0	33120	
635	0	33005	
636	0	32901	
637	0	32892	
638	0	32895	
639	0	32965	
640	0	33029	
641	0	33080	
642	0	33125	
643	0	33124	
644	0	33149	
645	0	33217	
646	0	33189	
647	0	33159	
648	0	33253	
649	0	33305	
650	0	33283	
651	0	33257	
652	0	33201	
653	0	33210	
654	0	33200	
655	0	33236	
656	0	33293	
657	0	33380	
658	0	33461	
659	0	33303	
660	0	33357	
661	0	33339	
662	0	33365	
663	0	33332	
664	0	33343	
665	0	33417	
666	0	33397	
667	0	33469	
668	0	33445	
669	0	33407	
670	0	33333	
671	0	33301	
672	0	33275	
673	0	33272	
674	0	33319	
675	0	33257	
676	0	33225	
677	0	33237	
678	0	33269	
679	0	33268	
680	0	33289	
681	0	33291	
682	0	33303	
683	0	33297	
684	0	33314	
685	0	33276	
686	0	33281	
687	0	33253	
688	0	33201	
689	0	33065	
690	0	33057	
691	0	33033	
692	0	33053	
693	0	33081	
694	0	33211	
695	0	33312	
696	0	33483	
697	0	33495	
698	0	33433	
699	0	33341	
700	0	33249	
701	0	33133	
702	0	33109	
703	0	32993	
704	0	32941	
705	0	32996	
706	0	33019	
707	0	33037	
708	0	33087	
709	0	33125	
710	0	33057	
711	0	33073	
712	0	33031	
713	0	32965	
714	0	32911	
715	0	32913	
716	0	32864	
717	0	32876	
718	0	32879	
719	0	32889	
720	0	32871	
721	0	32944	
722	0	32978	
723	0	32904	
724	0	32788	
725	0	32852	
726	0	32823	
727	0	32821	
728	0	32927	
729	0	33037	
730	0	33117	
731	0	33055	
732	0	33045	
733	0	33008	
734	0	32971	
735	0	32948	
736	0	32945	
737	0	32869	
738	0	32923	
739	0	32973	
740	0	32837	
741	0	32839	
742	0	32893	
743	0	32893	
744	0	32855	
745	0	32777	
746	0	32833	
747	0	32808	
748	0	32781	
749	0	32802	
750	0	32832	
751	0	32905	
752	0	32925	
753	0	32904	
754	0	32957	
755	0	32884	
756	0	32917	
757	0	32925	
758	0	32976	
759	0	32935	
760	0	33062	
761	0	33067	
762	0	33136	
763	0	33122	
764	0	33173	
765	0	33153	
766	0	33239	
767	0	33193	
768	0	33097	
769	0	33069	
770	0	33016	
771	0	32981	
772	0	33013	
773	0	33035	
774	0	33141	
775	0	33161	
776	0	33199	
777	0	33229	
778	0	33320	
779	0	33383	
780	0	33403	
781	0	33373	
782	0	33285	
783	0	33277	
784	0	33353	
785	0	33381	
786	0	33319	
787	0	33281	
788	0	33308	
789	0	33317	
790	0	33303	
791	0	33315	
792	0	33451	
793	0	33423	
794	0	33329	
795	0	33303	
796	0	33253	
797	0	33322	
798	0	33301	
799	0	33317	
800	0	33244	
801	0	33321	
802	0	33357	
803	0	33473	
804	0	33505	
805	0	33551	
806	0	33513	
807	0	33410	
808	0	33329	
809	0	33317	
810	0	33313	
811	0	33260	
812	0	33345	
813	0	33353	
814	0	33322	
815	0	33301	
816	0	33435	
817	0	33351	
818	0	33311	
819	0	33239	
820	0	33257	
821	0	33179	
822	0	33273	
823	0	33289	
824	0	33352	
825	0	33320	
826	0	33325	
827	0	33373	
828	0	33313	
829	0	33296	
830	0	33287	
831	0	33287	
832	0	33205	
833	0	33185	
834	0	33168	
835	0	33201	
836	0	33345	
837	0	33436	
838	0	33436	
839	0	33451	
840	0	33301	
841	0	33248	
842	0	33195	
843	0	33188	
844	0	33111	
845	0	33191	
846	0	33236	
847	0	33206	
848	0	33289	
849	0	33325	
850	0	33412	
851	0	33445	
852	0	33471	
853	0	33433	
854	0	33445	
855	0	33527	
856	0	33473	
857	0	33325	
858	0	33267	
859	0	33215	
860	0	33241	
861	0	33225	
862	0	33253	
863	0	33268	
864	0	33216	
865	0	33221	
866	0	33092	
867	0	33141	
868	0	33125	
869	0	33229	
870	0	33197	
871	0	33293	
872	0	33233	
873	0	33204	
874	0	33163	
875	0	33156	
876	0	33151	
877	0	33263	
878	0	33276	
879	0	33313	
880	0	33353	
881	0	33389	
882	0	33429	
883	0	33413	
884	0	33404	
885	0	33497	
886	0	33497	
887	0	33345	
888	0	33321	
889	0	33309	
890	0	33325	
891	0	33391	
892	0	33446	
893	0	33505	
894	0	33572	
895	0	33601	
896	0	33634	
897	0	33663	
898	0	33613	
899	0	33623	
900	0	33621	
901	0	33651	
902	0	33673	
903	0	33780	
904	0	33784	
905	0	33845	
906	0	33807	
907	0	33869	
908	0	33859	
909	0	33911	
910	0	33817	
911	0	33883	
912	0	33851	
913	0	33880	
914	0	33828	
915	0	33808	
916	0	33835	
917	0	33829	
918	0	33911	
919	0	33869	
920	0	33873	
921	0	33836	
922	0	33815	
923	0	33721	
924	0	33684	
925	0	33652	
926	0	33525	
927	0	33509	
928	0	33415	
929	0	33389	
930	0	33407	
931	0	33309	
932	0	33299	
933	0	33192	
934	0	33189	
935	0	33263	
936	0	33346	
937	0	33407	
938	0	33377	
939	0	33329	
940	0	33323	
941	0	33268	
942	0	33273	
943	0	33268	
944	0	33312	
945	0	33285	
946	0	33247	
947	0	33301	
948	0	33261	
949	0	33317	
950	0	33353	
951	0	33391	
952	0	33380	
953	0	33383	
954	0	33287	
955	0	33381	
956	0	33420	
957	0	33389	
958	0	33362	
959	0	33347	
960	0	33329	
961	0	33367	
962	0	33325	
963	0	33351	
964	0	33349	
965	0	33291	
966	0	33309	
967	0	33241	
968	0	33166	
969	0	33205	
970	0	33289	
971	0	33223	
972	0	33193	
973	0	33253	
974	0	33317	
975	0	33273	
976	0	33236	
977	0	33201	
978	0	33212	
979	0	33257	
980	0	33193	
981	0	33181	
982	0	33219	
983	0	33241	
984	0	33238	
985	0	33225	
986	0	33258	
987	0	33352	
988	0	33437	
989	0	33455	
990	0	33317	
991	0	33281	
992	0	33217	
993	0	33221	
994	0	33252	
995	0	33329	
996	0	33445	
997	0	33461	
998	0	33521	
999	0	33559	
1000	0	33533	
1001	0	33444	
1002	0	33373	
1003	0	33313	
1004	0	33280	
1005	0	33348	
1006	0	33381	
1007	0	33373	
1008	0	33439	
1009	0	33388	
1010	0	33403	
1011	0	33427	
1012	0	33479	
1013	0	33447	
1014	0	33442	
1015	0	33505	
1016	0	33491	
1017	0	33485	
1018	0	33537	
1019	0	33617	
1020	0	33621	
1021	0	33609	
1022	0	33649	
1023	0	33701	
1024	0	33737	
1025	0	33665	
1026	0	33612	
1027	0	33551	
1028	0	33436	
1029	0	33545	
1030	0	33575	
1031	0	33589	
1032	0	33671	
1033	0	33644	
1034	0	33663	
1035	0	33647	
1036	0	33676	
1037	0	33668	
1038	0	33601	
1039	0	33679	
1040	0	33684	
1041	0	33693	
1042	0	33711	
1043	0	33685	
1044	0	33701	
1045	0	33687	
1046	0	33621	
1047	0	33657	
1048	0	33645	
1049	0	33693	
1050	0	33708	
1051	0	33757	
1052	0	33789	
1053	0	33765	
1054	0	33788	
1055	0	33683	
1056	0	33629	
1057	0	33663	
1058	0	33604	
1059	0	33508	
1060	0	33519	
1061	0	33492	
1062	0	33525	
1063	0	33513	
1064	0	33500	
1065	0	33516	
1066	0	33421	
1067	0	33459	
1068	0	33569	
1069	0	33661	
1070	0	33602	
1071	0	33607	
1072	0	33697	
1073	0	33679	
1074	0	33679	
1075	0	33710	
1076	0	33740	
1077	0	33631	
1078	0	33512	
1079	0	33486	
1080	0	33543	
1081	0	33509	
1082	0	33545	
1083	0	33617	
1084	0	33567	
1085	0	33597	
1086	0	33557	
1087	0	33635	
1088	0	33605	
1089	0	33717	
1090	0	33729	
1091	0	33557	
1092	0	33517	
1093	0	33449	
1094	0	33443	
1095	0	33445	
1096	0	33471	
1097	0	33540	
1098	0	33537	
1099	0	33561	
1100	0	33543	
1101	0	33601	
1102	0	33552	
1103	0	33552	
1104	0	33507	
1105	0	33429	
1106	0	33460	
1107	0	33509	
1108	0	33563	
1109	0	33580	
1110	0	33544	
1111	0	33583	
1112	0	33525	
1113	0	33503	
1114	0	33597	
1115	0	33607	
1116	0	33532	
1117	0	33633	
1118	0	33653	
1119	0	33600	
1120	0	33588	
1121	0	33535	
1122	0	33524	
1123	0	33634	
1124	0	33583	
1125	0	33527	
1126	0	33601	
1127	0	33687	
1128	0	33739	
1129	0	33793	
1130	0	33738	
1131	0	33741	
1132	0	33695	
1133	0	33687	
1134	0	33633	
1135	0	33637	
1136	0	33524	
1137	0	33568	
1138	0	33564	
1139	0	33682	
1140	0	33685	
1141	0	33676	
1142	0	33679	
1143	0	33705	
1144	0	33681	
1145	0	33572	
1146	0	33477	
1147	0	33469	
1148	0	33488	
1149	0	33469	
1150	0	33493	
1151	0	33497	
1152	0	33541	
1153	0	33481	
1154	0	33535	
1155	0	33584	
1156	0	33713	
1157	0	33761	
1158	0	33764	
1159	0	33688	
1160	0	33689	
1161	0	33660	
1162	0	33684	
1163	0	33660	
1164	0	33669	
1165	0	33669	
1166	0	33645	
1167	0	33685	
1168	0	33692	
1169	0	33655	
1170	0	33601	
1171	0	33575	
1172	0	33600	
1173	0	33549	
1174	0	33592	
1175	0	33621	
1176	0	33571	
1177	0	33609	
1178	0	33665	
1179	0	33670	
1180	0	33665	
1181	0	33700	
1182	0	33711	
1183	0	33653	
1184	0	33679	
1185	0	33713	
1186	0	33731	
1187	0	33623	
1188	0	33607	
1189	0	33532	
1190	0	33497	
1191	0	33509	
1192	0	33588	
1193	0	33644	
1194	0	33721	
1195	0	33756	
1196	0	33775	
1197	0	33769	
1198	0	33693	
1199	0	33759	
1200	0	33749	
1201	0	33701	
1202	0	33710	
1203	0	33633	
1204	0	33667	
1205	0	33653	
1206	0	33645	
1207	0	33784	
1208	0	33729	
1209	0	33605	
1210	0	33588	
1211	0	33564	
1212	0	33615	
1213	0	33617	
1214	0	33603	
1215	0	33613	
1216	0	33581	
1217	0	33563	
1218	0	33468	
1219	0	33353	
1220	0	33421	
1221	0	33367	
1222	0	33301	
1223	0	33309	
1224	0	33333	
1225	0	33329	
1226	0	33321	
1227	0	33345	
1228	0	33257	
1229	0	33357	
1230	0	33273	
1231	0	33189	
1232	0	33197	
1233	0	33277	
1234	0	33228	
1235	0	33185	
1236	0	33209	
1237	0	33237	
1238	0	33233	
1239	0	33295	
1240	0	33265	
1241	0	33415	
1242	0	33509	
1243	0	33568	
1244	0	33463	
1245	0	33479	
1246	0	33460	
1247	0	33444	
1248	0	33405	
1249	0	33379	
1250	0	33284	
1251	0	33307	
1252	0	33308	
1253	0	33319	
1254	0	33385	
1255	0	33311	
1256	0	33257	
1257	0	33170	
1258	0	33152	
1259	0	33207	
1260	0	33297	
1261	0	33261	
1262	0	33177	
1263	0	33235	
1264	0	33207	
1265	0	33237	
1266	0	33180	
1267	0	33220	
1268	0	33273	
1269	0	33265	
1270	0	33331	
1271	0	33349	
1272	0	33316	
1273	0	33309	
1274	0	33305	
1275	0	33272	
1276	0	33263	
1277	0	33303	
1278	0	33366	
1279	0	33413	
1280	0	33437	
1281	0	33581	
1282	0	33527	
1283	0	33497	
1284	0	33569	
1285	0	33533	
1286	0	33540	
1287	0	33547	
1288	0	33557	
1289	0	33584	
1290	0	33525	
1291	0	33488	
1292	0	33529	
1293	0	33521	
1294	0	33519	
1295	0	33545	
1296	0	33544	
1297	0	33565	
1298	0	33625	
1299	0	33545	
1300	0	33421	
1301	0	33367	
1302	0	33385	
1303	0	33425	
1304	0	33399	
1305	0	33371	
1306	0	33348	
1307	0	33377	
1308	0	33373	
1309	0	33399	
1310	0	33365	
1311	0	33316	
1312	0	33236	
1313	0	33345	
1314	0	33381	
1315	0	33481	
1316	0	33461	
1317	0	33373	
1318	0	33297	
1319	0	33329	
1320	0	33437	
1321	0	33480	
1322	0	33495	
1323	0	33524	
1324	0	33503	
1325	0	33561	
1326	0	33657	
1327	0	33672	
1328	0	33541	
1329	0	33479	
1330	0	33433	
1331	0	33425	
1332	0	33407	
1333	0	33385	
1334	0	33357	
1335	0	33381	
1336	0	33337	
1337	0	33232	
1338	0	33228	
1339	0	33216	
1340	0	33285	
1341	0	33293	
1342	0	33337	
1343	0	33391	
1344	0	33415	
1345	0	33435	
1346	0	33457	
1347	0	33497	
1348	0	33465	
1349	0	33357	
1350	0	33385	
1351	0	33387	
1352	0	33413	
1353	0	33445	
1354	0	33348	
1355	0	33329	
1356	0	33330	
1357	0	33324	
1358	0	33265	
1359	0	33391	
1360	0	33388	
1361	0	33415	
1362	0	33433	
1363	0	33485	
1364	0	33467	
1365	0	33395	
1366	0	33351	
1367	0	33295	
1368	0	33329	
1369	0	33393	
1370	0	33412	
1371	0	33449	
1372	0	33421	
1373	0	33477	
1374	0	33543	
1375	0	33455	
1376	0	33511	
1377	0	33527	
1378	0	33477	
1379	0	33497	
1380	0	33493	
1381	0	33482	
1382	0	33469	
1383	0	33397	
1384	0	33409	
1385	0	33497	
1386	0	33509	
1387	0	33499	
1388	0	33463	
1389	0	33428	
1390	0	33492	
1391	0	33491	
1392	0	33543	
1393	0	33575	
1394	0	33601	
1395	0	33610	
1396	0	33575	
1397	0	33626	
1398	0	33641	
1399	0	33560	
1400	0	33488	
1401	0	33583	
1402	0	33593	
1403	0	33613	
1404	0	33626	
1405	0	33585	
1406	0	33671	
1407	0	33661	
1408	0	33713	
1409	0	33715	
1410	0	33647	
1411	0	33685	
1412	0	33698	
1413	0	33657	
1414	0	33617	
1415	0	33575	
1416	0	33604	
1417	0	33581	
1418	0	33691	
1419	0	33623	
1420	0	33701	
1421	0	33657	
1422	0	33683	
1423	0	33737	
1424	0	33844	
1425	0	33834	
1426	0	33780	
1427	0	33733	
1428	0	33685	
1429	0	33709	
1430	0	33688	
1431	0	33687	
1432	0	33769	
1433	0	33801	
1434	0	33949	
1435	0	34065	
1436	0	34065	
1437	0	34113	
1438	0	34056	
1439	0	34017	
1440	0	34001	
1441	0	34211	
1442	0	34428	
1443	0	34532	
1444	0	34564	
1445	0	34420	
1446	0	34349	
1447	0	34317	
1448	0	34331	
1449	0	34499	
1450	0	34565	
1451	0	34767	
1452	0	34881	
1453	0	35028	
1454	0	35218	
1455	0	35265	
1456	0	35209	
1457	0	35293	
1458	0	35381	
1459	0	35531	
1460	0	35780	
1461	0	36157	
1462	0	36487	
1463	0	36625	
1464	0	36724	
1465	0	36817	
1466	0	37101	
1467	0	37416	
1468	0	37733	
1469	0	37868	
1470	0	38017	
1471	0	38209	
1472	0	38401	
1473	0	38693	
1474	0	38991	
1475	0	39388	
1476	0	39679	
1477	0	40024	
1478	0	40269	
1479	0	40605	
1480	0	41111	
1481	0	41520	
1482	0	41687	
1483	0	41909	
1484	0	42125	
1485	0	42351	
1486	0	42607	
1487	0	43061	
1488	0	43593	
1489	0	43973	
1490	0	44349	
1491	0	44643	
1492	0	44878	
1493	0	45136	
1494	0	45391	
1495	0	45692	
1496	0	45969	
1497	0	46036	
1498	0	46103	
1499	0	46339	
1500	0	46549	
1501	0	46989	
1502	0	47204	
1503	0	47268	
1504	0	47436	
1505	0	47673	
1506	0	47837	
1507	0	47932	
1508	0	47916	
1509	0	47940	
1510	0	48064	
1511	0	48149	
1512	0	48325	
1513	0	48476	
1514	0	48713	
1515	0	48781	
1516	0	48828	
1517	0	48965	
1518	0	49125	
1519	0	49249	
1520	0	49356	
1521	0	49332	
1522	0	49185	
1523	0	48949	
1524	0	48588	
1525	0	48277	
1526	0	47977	
1527	0	47855	
1528	0	47919	
1529	0	48167	
1530	0	48573	
1531	0	48799	
1532	0	48972	
1533	0	49144	
1534	0	49132	
1535	0	48985	
1536	0	48749	
1537	0	48629	
1538	0	48593	
1539	0	48535	
1540	0	48413	
1541	0	48409	
1542	0	48461	
1543	0	48688	
1544	0	48797	
1545	0	48635	
1546	0	48600	
1547	0	48514	
1548	0	48516	
1549	0	48544	
1550	0	48633	
1551	0	48613	
1552	0	48373	
1553	0	48224	
1554	0	48035	
1555	0	47887	
1556	0	47905	
1557	0	48007	
1558	0	47971	
1559	0	48053	
1560	0	48208	
1561	0	48311	
1562	0	48255	
1563	0	48202	
1564	0	48032	
1565	0	47837	
1566	0	47605	
1567	0	47633	
1568	0	47791	
1569	0	47953	
1570	0	47892	
1571	0	47812	
1572	0	47748	
1573	0	47784	
1574	0	47641	
1575	0	47432	
1576	0	47511	
1577	0	47717	
1578	0	48021	
1579	0	48149	
1580	0	48109	
1581	0	48125	
1582	0	48021	
1583	0	47941	
1584	0	47813	
1585	0	47821	
1586	0	47996	
1587	0	48189	
1588	0	48377	
1589	0	48565	
1590	0	48787	
1591	0	49033	
1592	0	49104	
1593	0	48797	
1594	0	48485	
1595	0	48159	
1596	0	48036	
1597	0	48003	
1598	0	48080	
1599	0	48353	
1600	0	48589	
1601	0	48720	
1602	0	48833	
1603	0	48884	
1604	0	48719	
1605	0	48423	
1606	0	48068	
1607	0	47875	
1608	0	47981	
1609	0	48356	
1610	0	48541	
1611	0	48696	
1612	0	48885	
1613	0	48960	
1614	0	48965	
1615	0	48963	
1616	0	49089	
1617	0	49321	
1618	0	49621	
1619	0	49767	
1620	0	49553	
1621	0	49327	
1622	0	49057	
1623	0	48844	
1624	0	48868	
1625	0	48924	
1626	0	48961	
1627	0	49061	
1628	0	49205	
1629	0	49337	
1630	0	49601	
1631	0	49753	
1632	0	49700	
1633	0	49439	
1634	0	49213	
1635	0	49177	
1636	0	49133	
1637	0	49249	
1638	0	49523	
1639	0	49737	
1640	0	49698	
1641	0	49503	
1642	0	49285	
1643	0	49197	
1644	0	48985	
1645	0	48962	
1646	0	49135	
1647	0	49413	
1648	0	49751	
1649	0	49801	
1650	0	49737	
1651	0	49614	
1652	0	49513	
1653	0	49469	
1654	0	49448	
1655	0	49621	
1656	0	49845	
1657	0	49933	
1658	0	50005	
1659	0	49936	
1660	0	49888	
1661	0	49901	
1662	0	49984	
1663	0	50009	
1664	0	49929	
1665	0	49928	
1666	0	49919	
1667	0	50020	
1668	0	50117	
1669	0	50244	
1670	0	50165	
1671	0	50037	
1672	0	49919	
1673	0	49861	
1674	0	49805	
1675	0	49695	
1676	0	49685	
1677	0	49829	
1678	0	50017	
1679	0	50125	
1680	0	50105	
1681	0	50085	
1682	0	49992	
1683	0	49879	
1684	0	49773	
1685	0	49721	
1686	0	49753	
1687	0	49887	
1688	0	50173	
1689	0	50235	
1690	0	50196	
1691	0	50119	
1692	0	49929	
1693	0	49743	
1694	0	49641	
1695	0	49799	
1696	0	49877	
1697	0	50017	
1698	0	50040	
1699	0	49861	
1700	0	49721	
1701	0	49693	
1702	0	49916	
1703	0	50013	
1704	0	49827	
1705	0	49728	
1706	0	49853	
1707	0	49837	
1708	0	49711	
1709	0	49668	
1710	0	49836	
1711	0	49833	
1712	0	49889	
1713	0	49909	
1714	0	49799	
1715	0	49745	
1716	0	49679	
1717	0	49865	
1718	0	49917	
1719	0	49927	
1720	0	50037	
1721	0	50053	
1722	0	50113	
1723	0	50017	
1724	0	49885	
1725	0	49781	
1726	0	49759	
1727	0	49692	
1728	0	49700	
1729	0	49808	
1730	0	49932	
1731	0	49901	
1732	0	49968	
1733	0	50112	
1734	0	50074	
1735	0	50020	
1736	0	49911	
1737	0	49881	
1738	0	49857	
1739	0	49799	
1740	0	49679	
1741	0	49637	
1742	0	49625	
1743	0	49612	
1744	0	49544	
1745	0	49597	
1746	0	49677	
1747	0	49685	
1748	0	49725	
1749	0	49680	
1750	0	49588	
1751	0	49513	
1752	0	49469	
1753	0	49465	
1754	0	49436	
1755	0	49369	
1756	0	49361	
1757	0	49324	
1758	0	49127	
1759	0	49117	
1760	0	49109	
1761	0	49141	
1762	0	49200	
1763	0	49208	
1764	0	49189	
1765	0	49161	
1766	0	49111	
1767	0	49087	
1768	0	48984	
1769	0	49007	
1770	0	48977	
1771	0	48921	
1772	0	48911	
1773	0	48915	
1774	0	48861	
1775	0	48820	
1776	0	48660	
1777	0	48527	
1778	0	48553	
1779	0	48689	
1780	0	48709	
1781	0	48621	
1782	0	48740	
1783	0	48805	
1784	0	48925	
1785	0	48989	
1786	0	48948	
1787	0	49069	
1788	0	49069	
1789	0	49017	
1790	0	48955	
1791	0	48879	
1792	0	48905	
1793	0	48989	
1794	0	49076	
1795	0	49167	
1796	0	49100	
1797	0	49103	
1798	0	49216	
1799	0	49212	
1800	0	49217	
1801	0	49324	
1802	0	49512	
1803	0	49607	
1804	0	49686	
1805	0	49761	
1806	0	49961	
1807	0	50023	
1808	0	50117	
1809	0	50249	
1810	0	50444	
1811	0	50504	
1812	0	50612	
1813	0	50941	
1814	0	51253	
1815	0	51501	
1816	0	51603	
1817	0	51617	
1818	0	51589	
1819	0	51693	
1820	0	51937	
1821	0	52421	
1822	0	52672	
1823	0	52908	
1824	0	53148	
1825	0	53377	
1826	0	53643	
1827	0	53932	
1828	0	54221	
1829	0	54551	
1830	0	54861	
1831	0	55005	
1832	0	55161	
1833	0	55297	
1834	0	55497	
1835	0	55613	
1836	0	55708	
1837	0	55737	
1838	0	55897	
1839	0	56144	
1840	0	56377	
1841	0	56561	
1842	0	56829	
1843	0	57077	
1844	0	57205	
1845	0	57161	
1846	0	57013	
1847	0	56941	
1848	0	56972	
1849	0	57212	
1850	0	57285	
1851	0	57429	
1852	0	57695	
1853	0	58005	
1854	0	58020	
1855	0	57811	
1856	0	57540	
1857	0	57441	
1858	0	57457	
1859	0	57367	
1860	0	57369	
1861	0	57501	
1862	0	57557	
1863	0	57757	
1864	0	57857	
1865	0	57881	
1866	0	57966	
1867	0	58113	
1868	0	58332	
1869	0	58700	
1870	0	59009	
1871	0	59163	
1872	0	59111	
1873	0	59055	
1874	0	58989	
1875	0	58873	
1876	0	58753	
1877	0	58740	
1878	0	58701	
1879	0	58581	
1880	0	58721	
1881	0	59045	
1882	0	59401	
1883	0	59512	
1884	0	59269	
1885	0	58949	
1886	0	58801	
1887	0	58757	
1888	0	58805	
1889	0	58701	
1890	0	58545	
1891	0	58519	
1892	0	58412	
1893	0	58357	
1894	0	58281	
1895	0	58059	
1896	0	58007	
1897	0	57812	
1898	0	57633	
1899	0	57389	
1900	0	57249	
1901	0	56985	
1902	0	56896	
1903	0	56749	
1904	0	56553	
1905	0	56284	
1906	0	56093	
1907	0	55844	
1908	0	55504	
1909	0	55229	
1910	0	54941	
1911	0	54655	
1912	0	54356	
1913	0	54047	
1914	0	53793	
1915	0	53484	
1916	0	53325	
1917	0	53000	
1918	0	52717	
1919	0	52364	
1920	0	51977	
1921	0	51613	
1922	0	51153	
1923	0	50689	
1924	0	50177	
1925	0	49797	
1926	0	49464	
1927	0	49017	
1928	0	48533	
1929	0	48045	
1930	0	47668	
1931	0	47200	
1932	0	46717	
1933	0	46257	
1934	0	45785	
1935	0	45245	
1936	0	44637	
1937	0	44121	
1938	0	43673	
1939	0	43289	
1940	0	42825	
1941	0	42369	
1942	0	42001	
1943	0	41525	
1944	0	41055	
1945	0	40591	
1946	0	40047	
1947	0	39481	
1948	0	38877	
1949	0	38348	
1950	0	37945	
1951	0	37533	
1952	0	37141	
1953	0	36688	
1954	0	36303	
1955	0	35840	
1956	0	35296	
1957	0	34845	
1958	0	34376	
1959	0	33981	
1960	0	33477	
1961	0	33087	
1962	0	32612	
1963	0	32199	
1964	0	31805	
1965	0	31414	
1966	0	31069	
1967	0	30753	
1968	0	30496	
1969	0	30154	
1970	0	29949	
1971	0	29589	
1972	0	29303	
1973	0	29031	
1974	0	28739	
1975	0	28294	
1976	0	27991	
1977	0	27765	
1978	0	27553	
1979	0	27397	
1980	0	27143	
1981	0	26949	
1982	0	26693	
1983	0	26391	
1984	0	26118	
1985	0	25977	
1986	0	25628	
1987	0	25406	
1988	0	25124	
1989	0	24921	
1990	0	24743	
1991	0	24493	
1992	0	24239	
1993	0	24243	
1994	0	24071	
1995	0	23915	
1996	0	23808	
1997	0	23681	
1998	0	23571	
1999	0	23417	
2000	0	23301	
2001	0	23269	
2002	0	23156	
2003	0	23125	
2004	0	23086	
2005	0	23001	
2006	0	22951	
2007	0	22879	
2008	0	22770	
2009	0	22672	
2010	0	22609	
2011	0	22621	
2012	0	22608	
2013	0	22667	
2014	0	22657	
2015	0	22659	
2016	0	22736	
2017	0	22852	
2018	0	22868	
2019	0	23029	
2020	0	22993	
2021	0	22937	
2022	0	22857	
2023	0	22796	
2024	0	22837	
2025	0	22885	
2026	0	22877	
2027	0	22956	
2028	0	23137	
2029	0	23156	
2030	0	23243	
2031	0	23377	
2032	0	23521	
2033	0	23512	
2034	0	23543	
2035	0	23589	
2036	0	23661	
2037	0	23637	
2038	0	23689	
2039	0	23713	
2040	0	23819	
2041	0	23842	
2042	0	23996	
2043	0	24117	
2044	0	24228	
2045	0	24264	
2046	0	24243	
2047	0	24260	
2048	0	24305	
2049	0	24423	
2050	0	24528	
2051	0	24677	
2052	0	24782	
2053	0	24924	
2054	0	25096	
2055	0	25292	
2056	0	25331	
2057	0	25390	
2058	0	25433	
2059	0	25484	
2060	0	25584	
2061	0	25572	
2062	0	25609	
2063	0	25605	
2064	0	25680	
2065	0	25711	
2066	0	25707	
2067	0	25769	
2068	0	25832	
2069	0	25941	
2070	0	26067	
2071	0	26148	
2072	0	26318	
2073	0	26413	
2074	0	26413	
2075	0	26393	
2076	0	26485	
2077	0	26421	
2078	0	26429	
2079	0	26452	
2080	0	26485	
2081	0	26413	
2082	0	26453	
2083	0	26452	
2084	0	26439	
2085	0	26461	
2086	0	26573	
2087	0	26657	
2088	0	26709	
2089	0	26728	
2090	0	26719	
2091	0	26723	
2092	0	26626	
2093	0	26613	
2094	0	26553	
2095	0	26529	
2096	0	26487	
2097	0	26487	
2098	0	26447	
2099	0	26450	
2100	0	26396	
2101	0	26361	
2102	0	26333	
2103	0	26425	
2104	0	26387	
2105	0	26367	
2106	0	26357	
2107	0	26325	
2108	0	26348	
2109	0	26285	
2110	0	26285	
2111	0	26235	
2112	0	26157	
2113	0	26047	
2114	0	26041	
2115	0	26045	
2116	0	26023	
2117	0	26065	
2118	0	25989	
2119	0	25916	
2120	0	25861	
2121	0	25896	
2122	0	25908	
2123	0	25847	
2124	0	25846	
2125	0	25789	
2126	0	25795	
2127	0	25794	
2128	0	25764	
2129	0	25685	
2130	0	25723	
2131	0	25623	
2132	0	25516	
2133	0	25539	
2134	0	25495	
2135	0	25417	
2136	0	25407	
2137	0	25341	
2138	0	25326	
2139	0	25381	
2140	0	25377	
2141	0	25357	
2142	0	25477	
2143	0	25443	
2144	0	25455	
2145	0	25471	
2146	0	25494	
2147	0	25517	
2148	0	25437	
2149	0	25417	
2150	0	25369	
2151	0	25420	
2152	0	25321	
2153	0	25337	
2154	0	25364	
2155	0	25444	
2156	0	25385	
2157	0	25337	
2158	0	25264	
2159	0	25239	
2160	0	25103	
2161	0	25111	
2162	0	25137	
2163	0	25205	
2164	0	25308	
2165	0	25409	
2166	0	25513	
2167	0	25685	
2168	0	25708	
2169	0	25735	
2170	0	25634	
2171	0	25572	
2172	0	25520	
2173	0	25311	
2174	0	25272	
2175	0	25233	
2176	0	25372	
2177	0	25438	
2178	0	25457	
2179	0	25473	
2180	0	25421	
2181	0	25469	
2182	0	25557	
2183	0	25548	
2184	0	25577	
2185	0	25628	
2186	0	25611	
2187	0	25705	
2188	0	25617	
2189	0	25665	
2190	0	25681	
2191	0	25687	
2192	0	25737	
2193	0	25796	
2194	0	25778	
2195	0	25808	
2196	0	25878	
2197	0	25871	
2198	0	25855	
2199	0	25807	
2200	0	25870	
2201	0	25923	
2202	0	25869	
2203	0	25879	
2204	0	25895	
2205	0	25953	
2206	0	25931	
2207	0	25923	
2208	0	25924	
2209	0	25951	
2210	0	25904	
2211	0	25922	
2212	0	25881	
2213	0	25832	
2214	0	25925	
2215	0	25961	
2216	0	26013	
2217	0	26061	
2218	0	26082	
2219	0	26126	
2220	0	26046	
2221	0	25995	
2222	0	26021	
2223	0	25983	
2224	0	25962	
2225	0	25991	
2226	0	25949	
2227	0	25981	
2228	0	25977	
2229	0	25977	
2230	0	25941	
2231	0	25941	
2232	0	26049	
2233	0	26031	
2234	0	26001	
2235	0	26036	
2236	0	25945	
2237	0	25961	
2238	0	25943	
2239	0	26000	
2240	0	25928	
2241	0	25948	
2242	0	26021	
2243	0	26029	
2244	0	26000	
2245	0	25977	
2246	0	26145	
2247	0	26333	
2248	0	26511	
2249	0	26695	
2250	0	26700	
2251	0	26695	
2252	0	26740	
2253	0	26721	
2254	0	26757	
2255	0	26765	
2256	0	26835	
2257	0	26800	
2258	0	26792	
2259	0	26864	
2260	0	26899	
2261	0	26901	
2262	0	26977	
2263	0	27005	
2264	0	27111	
2265	0	27103	
2266	0	27239	
2267	0	27513	
2268	0	27621	
2269	0	27809	
2270	0	27839	
2271	0	27869	
2272	0	27865	
2273	0	27775	
2274	0	27771	
2275	0	27821	
2276	0	27829	
2277	0	27839	
2278	0	27823	
2279	0	27853	
2280	0	27981	
2281	0	28047	
2282	0	28116	
2283	0	28265	
2284	0	28333	
2285	0	28389	
2286	0	28421	
2287	0	28384	
2288	0	28377	
2289	0	28367	
2290	0	28291	
2291	0	28289	
2292	0	28199	
2293	0	28185	
2294	0	28151	
2295	0	28191	
2296	0	28061	
2297	0	28025	
2298	0	27991	
2299	0	28024	
2300	0	28017	
2301	0	27957	
2302	0	27968	
2303	0	27925	
2304	0	27995	
2305	0	28021	
2306	0	27894	
2307	0	27821	
2308	0	27780	
2309	0	27756	
2310	0	27749	
2311	0	27737	
2312	0	27680	
2313	0	27631	
2314	0	27656	
2315	0	27653	
2316	0	27616	
2317	0	27723	
2318	0	27749	
2319	0	27748	
2320	0	27731	
2321	0	27756	
2322	0	27908	
2323	0	27853	
2324	0	27804	
2325	0	27785	
2326	0	27720	
2327	0	27793	
2328	0	27812	
2329	0	27981	
2330	0	28009	
2331	0	27955	
2332	0	27910	
2333	0	27960	
2334	0	27921	
2335	0	27892	
2336	0	27900	
2337	0	27869	
2338	0	27805	
2339	0	27791	
2340	0	27815	
2341	0	27804	
2342	0	27860	
2343	0	27900	
2344	0	27905	
2345	0	27983	
2346	0	27974	
2347	0	28063	
2348	0	28081	
2349	0	28077	
2350	0	28149	
2351	0	28124	
2352	0	28101	
2353	0	28075	
2354	0	28068	
2355	0	28057	
2356	0	28079	
2357	0	28201	
2358	0	28168	
2359	0	28172	
2360	0	28035	
2361	0	28060	
2362	0	28032	
2363	0	28151	
2364	0	28204	
2365	0	28131	
2366	0	28061	
2367	0	28039	
2368	0	28048	
2369	0	28055	
2370	0	28076	
2371	0	28137	
2372	0	28089	
2373	0	28199	
2374	0	28225	
2375	0	28245	
2376	0	28309	
2377	0	28321	
2378	0	28317	
2379	0	28383	
2380	0	28343	
2381	0	28253	
2382	0	28279	
2383	0	28213	
2384	0	28177	
2385	0	28203	
2386	0	28237	
2387	0	28424	
2388	0	28501	
2389	0	28549	
2390	0	28549	
2391	0	28529	
2392	0	28498	
2393	0	28503	
2394	0	28401	
2395	0	28407	
2396	0	28431	
2397	0	28433	
2398	0	28444	
2399	0	28453	
2400	0	28421	
2401	0	28359	
2402	0	28413	
2403	0	28469	
2404	0	28482	
2405	0	28556	
2406	0	28563	
2407	0	28587	
2408	0	28659	
2409	0	28616	
2410	0	28545	
2411	0	28465	
2412	0	28519	
2413	0	28514	
2414	0	28509	
2415	0	28575	
2416	0	28496	
2417	0	28609	
2418	0	28565	
2419	0	28548	
2420	0	28457	
2421	0	28428	
2422	0	28421	
2423	0	28439	
2424	0	28445	
2425	0	28474	
2426	0	28492	
2427	0	28453	
2428	0	28398	
2429	0	28391	
2430	0	28353	
2431	0	28385	
2432	0	28369	
2433	0	28327	
2434	0	28211	
2435	0	28223	
2436	0	28303	
2437	0	28333	
2438	0	28309	
2439	0	28429	
2440	0	28444	
2441	0	28385	
2442	0	28367	
2443	0	28429	
2444	0	28449	
2445	0	28489	
2446	0	28477	
2447	0	28545	
2448	0	28549	
2449	0	28501	
2450	0	28524	
2451	0	28529	
2452	0	28683	
2453	0	28664	
2454	0	28661	
2455	0	28785	
2456	0	28767	
2457	0	28706	
2458	0	28727	
2459	0	28868	
2460	0	28815	
2461	0	28772	
2462	0	28684	
2463	0	28684	
2464	0	28609	
2465	0	28695	
2466	0	28729	
2467	0	28767	
2468	0	28788	
2469	0	28805	
2470	0	28833	
2471	0	28877	
2472	0	28839	
2473	0	28793	
2474	0	28711	
2475	0	28665	
2476	0	28693	
2477	0	28701	
2478	0	28676	
2479	0	28681	
2480	0	28679	
2481	0	28677	
2482	0	28648	
2483	0	28656	
2484	0	28599	
2485	0	28540	
2486	0	28561	
2487	0	28620	
2488	0	28640	
2489	0	28641	
2490	0	28675	
2491	0	28659	
2492	0	28541	
2493	0	28566	
2494	0	28625	
2495	0	28637	
2496	0	28633	
2497	0	28712	
2498	0	28700	
2499	0	28788	
2500	0	28813	
2501	0	28783	
2502	0	28821	
2503	0	28750	
2504	0	28749	
2505	0	28791	
2506	0	28793	
2507	0	28741	
2508	0	28777	
2509	0	28836	
2510	0	28881	
2511	0	28820	
2512	0	28871	
2513	0	28853	
2514	0	28951	
2515	0	28881	
2516	0	28852	
2517	0	28869	
2518	0	28796	
2519	0	28801	
2520	0	28743	
2521	0	28719	
2522	0	28687	
2523	0	28708	
2524	0	28709	
2525	0	28769	
2526	0	28730	
2527	0	28673	
2528	0	28740	
2529	0	28753	
2530	0	28791	
2531	0	28853	
2532	0	28785	
2533	0	28848	
2534	0	28943	
2535	0	28911	
2536	0	28936	
2537	0	28916	
2538	0	28877	
2539	0	28903	
2540	0	28897	
2541	0	28917	
2542	0	28988	
2543	0	28943	
2544	0	29011	
2545	0	29005	
2546	0	28965	
2547	0	28961	
2548	0	28970	
2549	0	29018	
2550	0	29088	
2551	0	29060	
2552	0	29121	
2553	0	29179	
2554	0	29260	
2555	0	29175	
2556	0	29217	
2557	0	29185	
2558	0	29157	
2559	0	29109	
2560	0	29113	
2561	0	29153	
2562	0	29181	
2563	0	29173	
2564	0	29091	
2565	0	29059	
2566	0	29117	
2567	0	29093	
2568	0	29073	
2569	0	29091	
2570	0	29079	
2571	0	28989	
2572	0	28993	
2573	0	28951	
2574	0	28977	
2575	0	28992	
2576	0	28937	
2577	0	28907	
2578	0	28948	
2579	0	29009	
2580	0	29037	
2581	0	29037	
2582	0	29066	
2583	0	29030	
2584	0	29047	
2585	0	29147	
2586	0	29049	
2587	0	29125	
2588	0	29097	
2589	0	29017	
2590	0	29031	
2591	0	29075	
2592	0	29115	
2593	0	29133	
2594	0	29055	
2595	0	29120	
2596	0	29252	
2597	0	29233	
2598	0	29248	
2599	0	29119	
2600	0	29096	
2601	0	29060	
2602	0	28988	
2603	0	28973	
2604	0	28992	
2605	0	29071	
2606	0	29090	
2607	0	29123	
2608	0	29167	
2609	0	29213	
2610	0	29257	
2611	0	29346	
2612	0	29368	
2613	0	29303	
2614	0	29269	
2615	0	29228	
2616	0	29185	
2617	0	29207	
2618	0	29209	
2619	0	29217	
2620	0	29285	
2621	0	29299	
2622	0	29249	
2623	0	29259	
2624	0	29386	
2625	0	29341	
2626	0	29427	
2627	0	29491	
2628	0	29513	
2629	0	29428	
2630	0	29437	
2631	0	29415	
2632	0	29469	
2633	0	29412	
2634	0	29434	
2635	0	29413	
2636	0	29319	
2637	0	29385	
2638	0	29367	
2639	0	29383	
2640	0	29349	
2641	0	29323	
2642	0	29337	
2643	0	29353	
2644	0	29319	
2645	0	29317	
2646	0	29345	
2647	0	29356	
2648	0	29447	
2649	0	29465	
2650	0	29557	
2651	0	29628	
2652	0	29593	
2653	0	29612	
2654	0	29657	
2655	0	29625	
2656	0	29537	
2657	0	29436	
2658	0	29489	
2659	0	29461	
2660	0	29533	
2661	0	29525	
2662	0	29503	
2663	0	29455	
2664	0	29353	
2665	0	29329	
2666	0	29372	
2667	0	29356	
2668	0	29285	
2669	0	29345	
2670	0	29313	
2671	0	29348	
2672	0	29297	
2673	0	29252	
2674	0	29263	
2675	0	29249	
2676	0	29263	
2677	0	29399	
2678	0	29409	
2679	0	29443	
2680	0	29405	
2681	0	29445	
2682	0	29409	
2683	0	29427	
2684	0	29349	
2685	0	29351	
2686	0	29405	
2687	0	29326	
2688	0	29289	
2689	0	29325	
2690	0	29396	
2691	0	29421	
2692	0	29501	
2693	0	29483	
2694	0	29569	
2695	0	29569	
2696	0	29549	
2697	0	29519	
2698	0	29505	
2699	0	29549	
2700	0	29567	
2701	0	29613	
2702	0	29609	
2703	0	29536	
2704	0	29412	
2705	0	29313	
2706	0	29321	
2707	0	29364	
2708	0	29417	
2709	0	29445	
2710	0	29569	
2711	0	29524	
2712	0	29571	
2713	0	29529	
2714	0	29501	
2715	0	29455	
2716	0	29569	
2717	0	29632	
2718	0	29631	
2719	0	29664	
2720	0	29621	
2721	0	29503	
2722	0	29559	
2723	0	29543	
2724	0	29505	
2725	0	29545	
2726	0	29541	
2727	0	29543	
2728	0	29525	
2729	0	29497	
2730	0	29508	
2731	0	29517	
2732	0	29563	
2733	0	29497	
2734	0	29633	
2735	0	29738	
2736	0	29785	
2737	0	29785	
2738	0	29796	
2739	0	29737	
2740	0	29781	
2741	0	29732	
2742	0	29725	
2743	0	29881	
2744	0	29895	
2745	0	29978	
2746	0	30005	
2747	0	30043	
2748	0	30129	
2749	0	30128	
2750	0	30052	
2751	0	30097	
2752	0	30119	
2753	0	30069	
2754	0	30047	
2755	0	30031	
2756	0	30104	
2757	0	30117	
2758	0	29981	
2759	0	30007	
2760	0	29979	
2761	0	29948	
2762	0	29846	
2763	0	29813	
2764	0	29805	
2765	0	29818	
2766	0	29787	
2767	0	29740	
2768	0	29673	
2769	0	29732	
2770	0	29739	
2771	0	29780	
2772	0	29713	
2773	0	29605	
2774	0	29633	
2775	0	29527	
2776	0	29357	
2777	0	29405	
2778	0	29441	
2779	0	29443	
2780	0	29476	
2781	0	29531	
2782	0	29572	
2783	0	29599	
2784	0	29699	
2785	0	29677	
2786	0	29661	
2787	0	29580	
2788	0	29588	
2789	0	29631	
2790	0	29619	
2791	0	29525	
2792	0	29453	
2793	0	29453	
2794	0	29409	
2795	0	29451	
2796	0	29469	
2797	0	29477	
2798	0	29519	
2799	0	29593	
2800	0	29645	
2801	0	29609	
2802	0	29557	
2803	0	29629	
2804	0	29623	
2805	0	29717	
2806	0	29773	
2807	0	29752	
2808	0	29641	
2809	0	29661	
2810	0	29641	
2811	0	29601	
2812	0	29613	
2813	0	29698	
2814	0	29711	
2815	0	29689	
2816	0	29645	
2817	0	29641	
2818	0	29679	
2819	0	29613	
2820	0	29567	
2821	0	29483	
2822	0	29454	
2823	0	29418	
2824	0	29505	
2825	0	29541	
2826	0	29531	
2827	0	29561	
2828	0	29536	
2829	0	29507	
2830	0	29519	
2831	0	29501	
2832	0	29596	
2833	0	29627	
2834	0	29668	
2835	0	29695	
2836	0	29605	
2837	0	29607	
2838	0	29692	
2839	0	29701	
2840	0	29657	
2841	0	29637	
2842	0	29681	
2843	0	29585	
2844	0	29689	
2845	0	29725	
2846	0	29829	
2847	0	29765	
2848	0	29657	
2849	0	29709	
2850	0	29737	
2851	0	29836	
2852	0	29842	
2853	0	29893	
2854	0	29873	
2855	0	29777	
2856	0	29804	
2857	0	29804	
2858	0	29805	
2859	0	29847	
2860	0	29837	
2861	0	29833	
2862	0	29875	
2863	0	29924	
2864	0	29917	
2865	0	29977	
2866	0	30032	
2867	0	29973	
2868	0	29936	
2869	0	29965	
2870	0	30025	
2871	0	30000	
2872	0	29968	
2873	0	29877	
2874	0	29940	
2875	0	29905	
2876	0	29867	
2877	0	29795	
2878	0	29791	
2879	0	29853	
2880	0	29889	
2881	0	29837	
2882	0	29897	
2883	0	29922	
2884	0	29920	
2885	0	29837	
2886	0	29857	
2887	0	29908	
2888	0	29941	
2889	0	29937	
2890	0	30017	
2891	0	29939	
2892	0	29957	
2893	0	29989	
2894	0	29980	
2895	0	30009	
2896	0	29989	
2897	0	29916	
2898	0	29913	
2899	0	29891	
2900	0	29901	
2901	0	29933	
2902	0	29897	
2903	0	29860	
2904	0	29841	
2905	0	29872	
2906	0	29961	
2907	0	30053	
2908	0	29991	
2909	0	30009	
2910	0	29931	
2911	0	29948	
2912	0	29895	
2913	0	29945	
2914	0	29941	
2915	0	29918	
2916	0	29992	
2917	0	29969	
2918	0	29853	
2919	0	29869	
2920	0	29963	
2921	0	30028	
2922	0	30057	
2923	0	30089	
2924	0	29979	
2925	0	30009	
2926	0	30011	
2927	0	29964	
2928	0	29827	
2929	0	29801	
2930	0	29828	
2931	0	29890	
2932	0	29964	
2933	0	29919	
2934	0	29897	
2935	0	29937	
2936	0	29845	
2937	0	29797	
2938	0	29767	
2939	0	29708	
2940	0	29684	
2941	0	29669	
2942	0	29711	
2943	0	29733	
2944	0	29787	
2945	0	29921	
2946	0	29944	
2947	0	30025	
2948	0	30081	
2949	0	30052	
2950	0	30068	
2951	0	30087	
2952	0	30081	
2953	0	30033	
2954	0	29968	
2955	0	29953	
2956	0	29925	
2957	0	29926	
2958	0	29964	
2959	0	30073	
2960	0	30025	
2961	0	30004	
2962	0	29997	
2963	0	30040	
2964	0	30068	
2965	0	30025	
2966	0	29943	
2967	0	29841	
2968	0	29913	
2969	0	29896	
2970	0	29880	
2971	0	29907	
2972	0	29923	
2973	0	29903	
2974	0	29865	
2975	0	29972	
2976	0	29968	
2977	0	30004	
2978	0	30055	
2979	0	30117	
2980	0	30093	
2981	0	30025	
2982	0	29981	
2983	0	29975	
2984	0	29983	
2985	0	30068	
2986	0	30101	
2987	0	30025	
2988	0	29981	
2989	0	29961	
2990	0	29985	
2991	0	30048	
2992	0	30097	
2993	0	30028	
2994	0	30065	
2995	0	30117	
2996	0	30220	
2997	0	30119	
2998	0	30111	
2999	0	30111	
3000	0	30211	
3001	0	30300	
3002	0	30341	
3003	0	30285	
3004	0	30414	
3005	0	30436	
3006	0	30421	
3007	0	30414	
3008	0	30473	
3009	0	30369	
3010	0	30331	
3011	0	30317	
3012	0	30363	
3013	0	30389	
3014	0	30367	
3015	0	30428	
3016	0	30389	
3017	0	30336	
3018	0	30271	
3019	0	30188	
3020	0	30237	
3021	0	30164	
3022	0	30128	
3023	0	30223	
3024	0	30287	
3025	0	30259	
3026	0	30321	
3027	0	30239	
3028	0	30268	
3029	0	30265	
3030	0	30239	
3031	0	30180	
3032	0	30128	
3033	0	30089	
3034	0	30104	
3035	0	30149	
3036	0	30183	
3037	0	30137	
3038	0	30253	
3039	0	30227	
3040	0	30201	
3041	0	30188	
3042	0	30128	
3043	0	30087	
3044	0	30121	
3045	0	30069	
3046	0	30100	
3047	0	30105	
3048	0	30052	
3049	0	30021	
3050	0	29939	
3051	0	29969	
3052	0	29973	
3053	0	29897	
3054	0	29943	
3055	0	29981	
3056	0	29970	
3057	0	29913	
3058	0	29933	
3059	0	29928	
3060	0	29933	
3061	0	29995	
3062	0	30017	
3063	0	30012	
3064	0	30021	
3065	0	29961	
3066	0	30012	
3067	0	30009	
3068	0	30025	
3069	0	30011	
3070	0	29993	
3071	0	29976	
3072	0	30024	
3073	0	29999	
3074	0	29917	
3075	0	29885	
3076	0	29807	
3077	0	29785	
3078	0	29804	
3079	0	29809	
3080	0	29905	
3081	0	29995	
3082	0	30125	
3083	0	30121	
3084	0	30105	
3085	0	30017	
3086	0	29997	
3087	0	30018	
3088	0	29919	
3089	0	29909	
3090	0	30025	
3091	0	30003	
3092	0	29940	
3093	0	29924	
3094	0	29923	
3095	0	29952	
3096	0	29977	
3097	0	29901	
3098	0	29887	
3099	0	29895	
3100	0	29954	
3101	0	30020	
3102	0	30034	
3103	0	30097	
3104	0	30092	
3105	0	30072	
3106	0	30009	
3107	0	30096	
3108	0	30096	
3109	0	30068	
3110	0	30036	
3111	0	30033	
3112	0	30025	
3113	0	29989	
3114	0	30040	
3115	0	30119	
3116	0	30033	
3117	0	30058	
3118	0	30079	
3119	0	30029	
3120	0	30027	
3121	0	30013	
3122	0	30048	
3123	0	30045	
3124	0	30001	
3125	0	30057	
3126	0	30215	
3127	0	30256	
3128	0	30232	
3129	0	30180	
3130	0	30207	
3131	0	30141	
3132	0	30133	
3133	0	30104	
3134	0	30105	
3135	0	30109	
3136	0	30117	
3137	0	30085	
3138	0	30095	
3139	0	30205	
3140	0	30173	
3141	0	30114	
3142	0	30020	
3143	0	29989	
3144	0	30029	
3145	0	30088	
3146	0	30081	
3147	0	30084	
3148	0	30093	
3149	0	30103	
3150	0	30149	
3151	0	30200	
3152	0	30124	
3153	0	30153	
3154	0	30161	
3155	0	30168	
3156	0	30156	
3157	0	30144	
3158	0	30201	
3159	0	30197	
3160	0	30060	
3161	0	30029	
3162	0	30075	
3163	0	30104	
3164	0	30119	
3165	0	30177	
3166	0	30117	
3167	0	30100	
3168	0	30105	
3169	0	30057	
3170	0	29947	
3171	0	29911	
3172	0	29977	
3173	0	29949	
3174	0	29948	
3175	0	29901	
3176	0	29868	
3177	0	29863	
3178	0	29869	
3179	0	29785	
3180	0	29853	
3181	0	29923	
3182	0	30029	
3183	0	29992	
3184	0	30045	
3185	0	30109	
3186	0	30130	
3187	0	30121	
3188	0	30112	
3189	0	30147	
3190	0	30104	
3191	0	30173	
3192	0	30224	
3193	0	30273	
3194	0	30333	
3195	0	30413	
3196	0	30453	
3197	0	30445	
3198	0	30377	
3199	0	30295	
3200	0	30247	
3201	0	30281	
3202	0	30244	
3203	0	30255	
3204	0	30271	
3205	0	30249	
3206	0	30324	
3207	0	30245	
3208	0	30215	
3209	0	30249	
3210	0	30268	
3211	0	30254	
3212	0	30221	
3213	0	30273	
3214	0	30241	
3215	0	30307	
3216	0	30372	
3217	0	30340	
3218	0	30307	
3219	0	30335	
3220	0	30413	
3221	0	30545	
3222	0	30428	
3223	0	30405	
3224	0	30328	
3225	0	30353	
3226	0	30404	
3227	0	30393	
3228	0	30333	
3229	0	30325	
3230	0	30388	
3231	0	30403	
3232	0	30315	
3233	0	30292	
3234	0	30289	
3235	0	30263	
3236	0	30264	
3237	0	30309	
3238	0	30253	
3239	0	30198	
3240	0	30184	
3241	0	30193	
3242	0	30193	
3243	0	30384	
3244	0	30521	
3245	0	30680	
3246	0	30852	
3247	0	31005	
3248	0	30998	
3249	0	30836	
3250	0	30779	
3251	0	30811	
3252	0	30781	
3253	0	30801	
3254	0	30823	
3255	0	30789	
3256	0	30833	
3257	0	30867	
3258	0	30904	
3259	0	30949	
3260	0	30885	
3261	0	30989	
3262	0	30989	
3263	0	31048	
3264	0	31125	
3265	0	31089	
3266	0	31138	
3267	0	31145	
3268	0	31193	
3269	0	31201	
3270	0	31205	
3271	0	31253	
3272	0	31249	
3273	0	31279	
3274	0	31321	
3275	0	31410	
3276	0	31398	
3277	0	31367	
3278	0	31307	
3279	0	31335	
3280	0	31421	
3281	0	31495	
3282	0	31455	
3283	0	31361	
3284	0	31332	
3285	0	31333	
3286	0	31329	
3287	0	31297	
3288	0	31291	
3289	0	31241	
3290	0	31259	
3291	0	31227	
3292	0	31215	
3293	0	31156	
3294	0	31027	
3295	0	31015	
3296	0	30937	
3297	0	30929	
3298	0	30988	
3299	0	30945	
3300	0	31068	
3301	0	31072	
3302	0	31071	
3303	0	31092	
3304	0	31119	
3305	0	31194	
3306	0	31205	
3307	0	31158	
3308	0	31089	
3309	0	31087	
3310	0	31094	
3311	0	31109	
3312	0	31125	
3313	0	31097	
3314	0	31108	
3315	0	30997	
3316	0	30892	
3317	0	30869	
3318	0	30834	
3319	0	30918	
3320	0	31059	
3321	0	31143	
3322	0	31077	
3323	0	30964	
3324	0	30965	
3325	0	31003	
3326	0	30993	
3327	0	30957	
3328	0	31044	
3329	0	31012	
3330	0	31013	
3331	0	31041	
3332	0	30955	
3333	0	30945	
3334	0	30936	
3335	0	30991	
3336	0	30928	
3337	0	30895	
3338	0	30885	
3339	0	30837	
3340	0	30925	
3341	0	30975	
3342	0	31055	
3343	0	31084	
3344	0	31075	
3345	0	31097	
3346	0	31125	
3347	0	30992	
3348	0	31004	
3349	0	30964	
3350	0	30946	
3351	0	30948	
3352	0	31020	
3353	0	31049	
3354	0	30914	
3355	0	30909	
3356	0	30861	
3357	0	30821	
3358	0	30852	
3359	0	30813	
3360	0	30860	
3361	0	30932	
3362	0	30997	
3363	0	30969	
3364	0	31000	
3365	0	31031	
3366	0	30949	
3367	0	31052	
3368	0	31050	
3369	0	31133	
3370	0	31089	
3371	0	31069	
3372	0	31083	
3373	0	31133	
3374	0	31195	
3375	0	31237	
3376	0	31193	
3377	0	31268	
3378	0	31292	
3379	0	31293	
3380	0	31288	
3381	0	31277	
3382	0	31296	
3383	0	31329	
3384	0	31213	
3385	0	31253	
3386	0	31320	
3387	0	31255	
3388	0	31289	
3389	0	31286	
3390	0	31297	
3391	0	31345	
3392	0	31304	
3393	0	31205	
3394	0	31213	
3395	0	31156	
3396	0	31148	
3397	0	31093	
3398	0	31036	
3399	0	31020	
3400	0	30964	
3401	0	30964	
3402	0	30945	
3403	0	30961	
3404	0	30965	
3405	0	30964	
3406	0	30980	
3407	0	30976	
3408	0	30983	
3409	0	31031	
3410	0	31064	
3411	0	31189	
3412	0	31269	
3413	0	31271	
3414	0	31175	
3415	0	31138	
3416	0	31088	
3417	0	31063	
3418	0	31112	
3419	0	31101	
3420	0	31121	
3421	0	31103	
3422	0	31212	
3423	0	31209	
3424	0	31172	
3425	0	31189	
3426	0	31249	
3427	0	31145	
3428	0	31161	
3429	0	31142	
3430	0	31149	
3431	0	31177	
3432	0	31217	
3433	0	31365	
3434	0	31351	
3435	0	31293	
3436	0	31343	
3437	0	31365	
3438	0	31325	
3439	0	31390	
3440	0	31364	
3441	0	31321	
3442	0	31367	
3443	0	31404	
3444	0	31396	
3445	0	31351	
3446	0	31316	
3447	0	31305	
3448	0	31301	
3449	0	31297	
3450	0	31423	
3451	0	31377	
3452	0	31392	
3453	0	31301	
3454	0	31291	
3455	0	31247	
3456	0	31357	
3457	0	31344	
3458	0	31393	
3459	0	31305	
3460	0	31332	
3461	0	31337	
3462	0	31395	
3463	0	31409	
3464	0	31391	
3465	0	31357	
3466	0	31328	
3467	0	31271	
3468	0	31237	
3469	0	31261	
3470	0	31295	
3471	0	31347	
3472	0	31365	
3473	0	31397	
3474	0	31372	
3475	0	31373	
3476	0	31340	
3477	0	31271	
3478	0	31305	
3479	0	31356	
3480	0	31341	
3481	0	31297	
3482	0	31329	
3483	0	31365	
3484	0	31428	
3485	0	31477	
3486	0	31521	
3487	0	31588	
3488	0	31513	
3489	0	31493	
3490	0	31453	
3491	0	31532	
3492	0	31465	
3493	0	31440	
3494	0	31407	
3495	0	31381	
3496	0	31432	
3497	0	31447	
3498	0	31476	
3499	0	31514	
3500	0	31615	
3501	0	31552	
3502	0	31461	
3503	0	31456	
3504	0	31436	
3505	0	31535	
3506	0	31502	
3507	0	31548	
3508	0	31561	
3509	0	31673	
3510	0	31593	
3511	0	31487	
3512	0	31471	
3513	0	31465	
3514	0	31457	
3515	0	31429	
3516	0	31499	
3517	0	31578	
3518	0	31535	
3519	0	31513	
3520	0	31423	
3521	0	31345	
3522	0	31335	
3523	0	31317	
3524	0	31252	
3525	0	31312	
3526	0	31341	
3527	0	31364	
3528	0	31359	
3529	0	31473	
3530	0	31511	
3531	0	31523	
3532	0	31579	
3533	0	31547	
3534	0	31565	
3535	0	31533	
3536	0	31499	
3537	0	31644	
3538	0	31649	
3539	0	31556	
3540	0	31557	
3541	0	31557	
3542	0	31621	
3543	0	31536	
3544	0	31612	
3545	0	31532	
3546	0	31402	
3547	0	31329	
3548	0	31348	
3549	0	31312	
3550	0	31297	
3551	0	31379	
3552	0	31448	
3553	0	31508	
3554	0	31537	
3555	0	31527	
3556	0	31437	
3557	0	31431	
3558	0	31395	
3559	0	31281	
3560	0	31261	
3561	0	31319	
3562	0	31377	
3563	0	31471	
3564	0	31527	
3565	0	31488	
3566	0	31463	
3567	0	31453	
3568	0	31473	
3569	0	31425	
3570	0	31389	
3571	0	31313	
3572	0	31293	
3573	0	31265	
3574	0	31319	
3575	0	31298	
3576	0	31215	
3577	0	31229	
3578	0	31241	
3579	0	31329	
3580	0	31300	
3581	0	31293	
3582	0	31245	
3583	0	31239	
3584	0	31189	
3585	0	31191	
3586	0	31105	
3587	0	31119	
3588	0	31220	
3589	0	31245	
3590	0	31197	
3591	0	31181	
3592	0	31185	
3593	0	31192	
3594	0	31253	
3595	0	31217	
3596	0	31260	
3597	0	31319	
3598	0	31388	
3599	0	31353	
3600	0	31284	
3601	0	31268	
3602	0	31301	
3603	0	31239	
3604	0	31317	
3605	0	31357	
3606	0	31359	
3607	0	31351	
3608	0	31409	
3609	0	31293	
3610	0	31285	
3611	0	31273	
3612	0	31289	
3613	0	31279	
3614	0	31300	
3615	0	31277	
3616	0	31323	
3617	0	31372	
3618	0	31300	
3619	0	31345	
3620	0	31301	
3621	0	31260	
3622	0	31359	
3623	0	31397	
3624	0	31389	
3625	0	31437	
3626	0	31509	
3627	0	31567	
3628	0	31637	
3629	0	31612	
3630	0	31571	
3631	0	31529	
3632	0	31503	
3633	0	31587	
3634	0	31621	
3635	0	31641	
3636	0	31707	
3637	0	31715	
3638	0	31690	
3639	0	31655	
3640	0	31604	
3641	0	31535	
3642	0	31473	
3643	0	31428	
3644	0	31445	
3645	0	31473	
3646	0	31423	
3647	0	31432	
3648	0	31341	
3649	0	31324	
3650	0	31320	
3651	0	31297	
3652	0	31293	
3653	0	31297	
3654	0	31332	
3655	0	31353	
3656	0	31425	
3657	0	31504	
3658	0	31515	
3659	0	31491	
3660	0	31582	
3661	0	31609	
3662	0	31637	
3663	0	31565	
3664	0	31530	
3665	0	31419	
3666	0	31312	
3667	0	31281	
3668	0	31327	
3669	0	31319	
3670	0	31404	
3671	0	31367	
3672	0	31400	
3673	0	31487	
3674	0	31557	
3675	0	31617	
3676	0	31647	
3677	0	31739	
3678	0	31717	
3679	0	31628	
3680	0	31601	
3681	0	31597	
3682	0	31662	
3683	0	31713	
3684	0	31726	
3685	0	31769	
3686	0	31857	
3687	0	31951	
3688	0	31992	
3689	0	32017	
3690	0	31979	
3691	0	31999	
3692	0	31991	
3693	0	31996	
3694	0	31977	
3695	0	32025	
3696	0	31927	
3697	0	31945	
3698	0	32025	
3699	0	31895	
3700	0	31917	
3701	0	31873	
3702	0	31783	
3703	0	31662	
3704	0	31705	
3705	0	31717	
3706	0	31761	
3707	0	31652	
3708	0	31573	
3709	0	31521	
3710	0	31500	
3711	0	31485	
3712	0	31476	
3713	0	31376	
3714	0	31417	
3715	0	31453	
3716	0	31441	
3717	0	31452	
3718	0	31471	
3719	0	31417	
3720	0	31357	
3721	0	31257	
3722	0	31201	
3723	0	31116	
3724	0	31116	
3725	0	31172	
3726	0	31103	
3727	0	31029	
3728	0	31044	
3729	0	31025	
3730	0	31074	
3731	0	31089	
3732	0	31136	
3733	0	31148	
3734	0	31105	
3735	0	31104	
3736	0	31064	
3737	0	31109	
3738	0	31113	
3739	0	31188	
3740	0	31147	
3741	0	31068	
3742	0	31049	
3743	0	30993	
3744	0	31023	
3745	0	31053	
3746	0	31047	
3747	0	31075	
3748	0	31101	
3749	0	31113	
3750	0	31148	
3751	0	31208	
3752	0	31234	
3753	0	31231	
3754	0	31223	
3755	0	31212	
3756	0	31189	
3757	0	31165	
3758	0	31111	
3759	0	31089	
3760	0	31135	
3761	0	31162	
3762	0	31137	
3763	0	31131	
3764	0	31213	
3765	0	31157	
3766	0	31264	
3767	0	31329	
3768	0	31335	
3769	0	31477	
3770	0	31431	
3771	0	31360	
3772	0	31321	
3773	0	31232	
3774	0	31304	
3775	0	31305	
3776	0	31299	
3777	0	31317	
3778	0	31301	
3779	0	31299	
3780	0	31378	
3781	0	31403	
3782	0	31376	
3783	0	31409	
3784	0	31485	
3785	0	31443	
3786	0	31473	
3787	0	31412	
3788	0	31425	
3789	0	31343	
3790	0	31287	
3791	0	31225	
3792	0	31217	
3793	0	31273	
3794	0	31228	
3795	0	31233	
3796	0	31243	
3797	0	31296	
3798	0	31348	
3799	0	31353	
3800	0	31391	
3801	0	31361	
3802	0	31441	
3803	0	31415	
3804	0	31359	
3805	0	31317	
3806	0	31284	
3807	0	31263	
3808	0	31412	
3809	0	31305	
3810	0	31365	
3811	0	31353	
3812	0	31375	
3813	0	31307	
3814	0	31296	
3815	0	31335	
3816	0	31348	
3817	0	31228	
3818	0	31173	
3819	0	31145	
3820	0	31117	
3821	0	31099	
3822	0	31104	
3823	0	31117	
3824	0	31113	
3825	0	31213	
3826	0	31244	
3827	0	31167	
3828	0	31177	
3829	0	31131	
3830	0	31125	
3831	0	31022	
3832	0	31085	
3833	0	31143	
3834	0	31143	
3835	0	31192	
3836	0	31161	
3837	0	31065	
3838	0	31057	
3839	0	31127	
3840	0	31237	
3841	0	31185	
3842	0	31125	
3843	0	31137	
3844	0	31213	
3845	0	31197	
3846	0	31219	
3847	0	31285	
3848	0	31343	
3849	0	31298	
3850	0	31205	
3851	0	31209	
3852	0	31224	
3853	0	31303	
3854	0	31269	
3855	0	31268	
3856	0	31220	
3857	0	31289	
3858	0	31279	
3859	0	31271	
3860	0	31198	
3861	0	31141	
3862	0	31120	
3863	0	31076	
3864	0	31057	
3865	0	31105	
3866	0	31076	
3867	0	31069	
3868	0	31080	
3869	0	31028	
3870	0	31044	
3871	0	31012	
3872	0	31032	
3873	0	31025	
3874	0	30951	
3875	0	30974	
3876	0	31070	
3877	0	31003	
3878	0	31049	
3879	0	31052	
3880	0	31029	
3881	0	31087	
3882	0	31165	
3883	0	31259	
3884	0	31263	
3885	0	31359	
3886	0	31359	
3887	0	31298	
3888	0	31388	
3889	0	31416	
3890	0	31380	
3891	0	31417	
3892	0	31343	
3893	0	31441	
3894	0	31381	
3895	0	31362	
3896	0	31333	
3897	0	31328	
3898	0	31429	
3899	0	31392	
3900	0	31444	
3901	0	31431	
3902	0	31437	
3903	0	31353	
3904	0	31233	
3905	0	31249	
3906	0	31236	
3907	0	31328	
3908	0	31312	
3909	0	31364	
3910	0	31293	
3911	0	31237	
3912	0	31187	
3913	0	31198	
3914	0	31138	
3915	0	31129	
3916	0	31125	
3917	0	31083	
3918	0	31103	
3919	0	31183	
3920	0	31196	
3921	0	31232	
3922	0	31213	
3923	0	31140	
3924	0	31149	
3925	0	31107	
3926	0	31152	
3927	0	31257	
3928	0	31277	
3929	0	31267	
3930	0	31243	
3931	0	31232	
3932	0	31147	
3933	0	31119	
3934	0	31161	
3935	0	31150	
3936	0	31137	
3937	0	31191	
3938	0	31221	
3939	0	31228	
3940	0	31153	
3941	0	31157	
3942	0	31021	
3943	0	31023	
3944	0	30991	
3945	0	30989	
3946	0	30988	
3947	0	31037	
3948	0	31020	
3949	0	31061	
3950	0	31068	
3951	0	30966	
3952	0	31033	
3953	0	31059	
3954	0	31151	
3955	0	31139	
3956	0	31185	
3957	0	31219	
3958	0	31156	
3959	0	31212	
3960	0	31205	
3961	0	31177	
3962	0	31231	
3963	0	31157	
3964	0	31124	
3965	0	31158	
3966	0	31211	
3967	0	31178	
3968	0	31185	
3969	0	31179	
3970	0	31193	
3971	0	31233	
3972	0	31223	
3973	0	31115	
3974	0	31145	
3975	0	31180	
3976	0	31197	
3977	0	31201	
3978	0	31208	
3979	0	31183	
3980	0	31217	
3981	0	31284	
3982	0	31337	
3983	0	31248	
3984	0	31205	
3985	0	31144	
3986	0	31137	
3987	0	31089	
3988	0	31149	
3989	0	31108	
3990	0	31079	
3991	0	31093	
3992	0	31031	
3993	0	31135	
3994	0	31167	
3995	0	31077	
3996	0	31139	
3997	0	31189	
3998	0	31159	
3999	0	31124	
4000	0	31167	
4001	0	31160	
4002	0	31151	
4003	0	31193	
4004	0	31172	
4005	0	31231	
4006	0	31269	
4007	0	31324	
4008	0	31357	
4009	0	31377	
4010	0	31325	
4011	0	31273	
4012	0	31188	
4013	0	31188	
4014	0	31141	
4015	0	31137	
4016	0	31181	
4017	0	31195	
4018	0	31177	
4019	0	31122	
4020	0	31135	
4021	0	31185	
4022	0	31161	
4023	0	31136	
4024	0	31265	
4025	0	31289	
4026	0	31301	
4027	0	31423	
4028	0	31457	
4029	0	31447	
4030	0	31372	
4031	0	31351	
4032	0	31313	
4033	0	31238	
4034	0	31193	
4035	0	31284	
4036	0	31306	
4037	0	31304	
4038	0	31333	
4039	0	31353	
4040	0	31371	
4041	0	31222	
4042	0	31160	
4043	0	31109	
4044	0	31109	
4045	0	31141	
4046	0	31201	
4047	0	31152	
4048	0	31300	
4049	0	31293	
4050	0	31262	
4051	0	31165	
4052	0	31133	
4053	0	31101	
4054	0	31161	
4055	0	31247	
4056	0	31304	
4057	0	31381	
4058	0	31415	
4059	0	31416	
4060	0	31396	
4061	0	31352	
4062	0	31375	
4063	0	31303	
4064	0	31292	
4065	0	31279	
4066	0	31251	
4067	0	31245	
4068	0	31141	
4069	0	31151	
4070	0	31268	
4071	0	31237	
4072	0	31242	
4073	0	31153	
4074	0	31145	
4075	0	31217	
4076	0	31251	
4077	0	31211	
4078	0	31233	
4079	0	31139	
4080	0	31121	
4081	0	31037	
4082	0	31105	
4083	0	31109	
4084	0	31131	
4085	0	31172	
4086	0	31228	
4087	0	31301	
4088	0	31257	
4089	0	31285	
4090	0	31364	
4091	0	31291	
4092	0	31313	
4093	0	31393	
4094	0	31369	
4095	0	31333	
4096	0	31265	
4097	0	31236	
4098	0	31247	
4099	0	31301	
4100	0	31425	
4101	0	31417	
4102	0	31417	
4103	0	31395	
4104	0	31480	
4105	0	31425	
4106	0	31403	
4107	0	31420	
4108	0	31413	
4109	0	31375	
4110	0	31323	
4111	0	31339	
4112	0	31383	
4113	0	31409	
4114	0	31468	
4115	0	31405	
4116	0	31478	
4117	0	31449	
4118	0	31494	
4119	0	31405	
4120	0	31408	
4121	0	31317	
4122	0	31295	
4123	0	31289	
4124	0	31351	
4125	0	31412	
4126	0	31393	
4127	0	31511	
4128	0	31536	
4129	0	31548	
4130	0	31520	
4131	0	31637	
4132	0	31588	
4133	0	31513	
4134	0	31617	
4135	0	31653	
4136	0	31679	
4137	0	31661	
4138	0	31684	
4139	0	31780	
4140	0	31795	
4141	0	31792	
4142	0	31728	
4143	0	31705	
4144	0	31740	
4145	0	31779	
4146	0	31816	
4147	0	31904	
4148	0	31966	
4149	0	31999	
4150	0	31996	
4151	0	32020	
4152	0	32048	
4153	0	31973	
4154	0	32023	
4155	0	31985	
4156	0	31989	
4157	0	32035	
4158	0	32117	
4159	0	32211	
4160	0	32353	
4161	0	32391	
4162	0	32317	
4163	0	32293	
4164	0	32359	
4165	0	32409	
4166	0	32493	
4167	0	32492	
4168	0	32473	
4169	0	32389	
4170	0	32293	
4171	0	32287	
4172	0	32300	
4173	0	32305	
4174	0	32469	
4175	0	32481	
4176	0	32559	
4177	0	32675	
4178	0	32535	
4179	0	32473	
4180	0	32435	
4181	0	32340	
4182	0	32276	
4183	0	32317	
4184	0	32512	
4185	0	32820	
4186	0	33191	
4187	0	33372	
4188	0	33149	
4189	0	32981	
4190	0	32685	
4191	0	32457	
4192	0	32408	
4193	0	32425	
4194	0	32500	
4195	0	32681	
4196	0	33105	
4197	0	33721	
4198	0	34157	
4199	0	34245	
4200	0	34076	
4201	0	33949	
4202	0	34061	
4203	0	33891	
4204	0	33695	
4205	0	33561	
4206	0	33724	
4207	0	34017	
4208	0	34273	
4209	0	34571	
4210	0	34772	
4211	0	34829	
4212	0	35017	
4213	0	35437	
4214	0	35643	
4215	0	35636	
4216	0	35624	
4217	0	35620	
4218	0	35793	
4219	0	35989	
4220	0	36200	
4221	0	36405	
4222	0	36583	
4223	0	36655	
4224	0	36839	
4225	0	37407	
4226	0	38073	
4227	0	38479	
4228	0	38297	
4229	0	37927	
4230	0	37597	
4231	0	37377	
4232	0	37444	
4233	0	37549	
4234	0	37953	
4235	0	38244	
4236	0	38344	
4237	0	38341	
4238	0	38292	
4239	0	38367	
4240	0	38431	
4241	0	38573	
4242	0	38925	
4243	0	39141	
4244	0	39329	
4245	0	39344	
4246	0	39237	
4247	0	39233	
4248	0	39303	
4249	0	39407	
4250	0	39341	
4251	0	39233	
4252	0	39321	
4253	0	39265	
4254	0	39100	
4255	0	38921	
4256	0	38973	
4257	0	38927	
4258	0	38881	
4259	0	38868	
4260	0	38977	
4261	0	38984	
4262	0	38925	
4263	0	38905	
4264	0	38831	
4265	0	38713	
4266	0	38629	
4267	0	38613	
4268	0	38476	
4269	0	38332	
4270	0	38121	
4271	0	37885	
4272	0	37667	
4273	0	37509	
4274	0	37315	
4275	0	36991	
4276	0	36684	
4277	0	36433	
4278	0	36117	
4279	0	35836	
4280	0	35412	
4281	0	35033	
4282	0	34665	
4283	0	34221	
4284	0	33823	
4285	0	33477	
4286	0	33018	
4287	0	32624	
4288	0	32186	
4289	0	31784	
4290	0	31428	
4291	0	30855	
4292	0	30343	
4293	0	29861	
4294	0	29439	
4295	0	29017	
4296	0	28484	
4297	0	27983	
4298	0	27587	
4299	0	27165	
4300	0	26797	
4301	0	26433	
4302	0	26087	
4303	0	25726	
4304	0	25321	
4305	0	24981	
4306	0	24557	
4307	0	24187	
4308	0	23825	
4309	0	23361	
4310	0	22925	
4311	0	22565	
4312	0	22289	
4313	0	21948	
4314	0	21596	
4315	0	21343	
4316	0	21089	
4317	0	20779	
4318	0	20521	
4319	0	20225	
4320	0	19922	
4321	0	19648	
4322	0	19431	
4323	0	19116	
4324	0	18825	
4325	0	18571	
4326	0	18313	
4327	0	18014	
4328	0	17825	
4329	0	17574	
4330	0	17341	
4331	0	17145	
4332	0	16997	
4333	0	16756	
4334	0	16630	
4335	0	16440	
4336	0	16267	
4337	0	16047	
4338	0	15914	
4339	0	15787	
4340	0	15596	
4341	0	15461	
4342	0	15279	
4343	0	15189	
4344	0	15009	
4345	0	14841	
4346	0	14773	
4347	0	14625	
4348	0	14508	
4349	0	14428	
4350	0	14283	
4351	0	14007	
4352	0	13805	
4353	0	13588	
4354	0	13435	
4355	0	13251	
4356	0	13068	
4357	0	12963	
4358	0	12839	
4359	0	12779	
4360	0	12744	
4361	0	12719	
4362	0	12565	
4363	0	12627	
4364	0	12588	
4365	0	12361	
4366	0	12236	
4367	0	12028	
4368	0	11837	
4369	0	11696	
4370	0	11669	
4371	0	11664	
4372	0	11621	
4373	0	11416	
4374	0	11311	
4375	0	11207	
4376	0	11072	
4377	0	10971	
4378	0	10885	
4379	0	10819	
4380	0	10672	
4381	0	10484	
4382	0	10357	
4383	0	10239	
4384	0	10148	
4385	0	10147	
4386	0	10029	
4387	0	9995	
4388	0	9932	
4389	0	9819	
4390	0	9746	
4391	0	9686	
4392	0	9589	
4393	0	9422	
4394	0	9360	
4395	0	9371	
4396	0	9359	
4397	0	9225	
4398	0	9153	
4399	0	9044	
4400	0	8948	
4401	0	8869	
4402	0	8865	
4403	0	8830	
4404	0	8744	
4405	0	8657	
4406	0	8584	
4407	0	8484	
4408	0	8428	
4409	0	8374	
4410	0	8338	
4411	0	8320	
4412	0	8331	
4413	0	8287	
4414	0	8301	
4415	0	8406	
4416	0	8420	
4417	0	8308	
4418	0	8125	
4419	0	7965	
4420	0	7875	
4421	0	7832	
4422	0	7843	
4423	0	7765	
4424	0	7770	
4425	0	7688	
4426	0	7567	
4427	0	7555	
4428	0	7595	
4429	0	7514	
4430	0	7410	
4431	0	7345	
4432	0	7271	
4433	0	7198	
4434	0	7196	
4435	0	7253	
4436	0	7389	
4437	0	7449	
4438	0	7176	
4439	0	7105	
4440	0	6982	
4441	0	6865	
4442	0	6871	
4443	0	6979	
4444	0	7064	
4445	0	6984	
4446	0	6895	
4447	0	6832	
4448	0	6769	
4449	0	6855	
4450	0	6898	
4451	0	6902	
4452	0	6795	
4453	0	6761	
4454	0	6761	
4455	0	6736	
4456	0	6716	
4457	0	6753	
4458	0	6660	
4459	0	6648	
4460	0	6611	
4461	0	6619	
4462	0	6644	
4463	0	6599	
4464	0	6617	
4465	0	6670	
4466	0	6639	
4467	0	6624	
4468	0	6643	
4469	0	6703	
4470	0	6728	
4471	0	6724	
4472	0	6643	
4473	0	6652	
4474	0	6594	
4475	0	6556	
4476	0	6537	
4477	0	6564	
4478	0	6518	
4479	0	6489	
4480	0	6535	
4481	0	6571	
4482	0	6688	
4483	0	6700	
4484	0	6743	
4485	0	6741	
4486	0	6759	
4487	0	6820	
4488	0	6886	
4489	0	6851	
4490	0	6863	
4491	0	6825	
4492	0	6827	
4493	0	6834	
4494	0	6785	
4495	0	6791	
4496	0	6900	
4497	0	6900	
4498	0	6857	
4499	0	6993	
4500	0	7082	
4501	0	7083	
4502	0	7142	
4503	0	7220	
4504	0	7145	
4505	0	7164	
4506	0	7201	
4507	0	7275	
4508	0	7355	
4509	0	7314	
4510	0	7274	
4511	0	7325	
4512	0	7363	
4513	0	7423	
4514	0	7488	
4515	0	7574	
4516	0	7412	
4517	0	7511	
4518	0	7602	
4519	0	7558	
4520	0	7598	
4521	0	7557	
4522	0	7521	
4523	0	7478	
4524	0	7591	
4525	0	7620	
4526	0	7694	
4527	0	7664	
4528	0	7713	
4529	0	7699	
4530	0	7724	
4531	0	7727	
4532	0	7680	
4533	0	7780	
4534	0	7805	
4535	0	7819	
4536	0	7915	
4537	0	7915	
4538	0	7958	
4539	0	7991	
4540	0	8042	
4541	0	8131	
4542	0	8158	
4543	0	8258	
4544	0	8332	
4545	0	8282	
4546	0	8314	
4547	0	8240	
4548	0	8262	
4549	0	8228	
4550	0	8280	
4551	0	8278	
4552	0	8264	
4553	0	8260	
4554	0	8318	
4555	0	8364	
4556	0	8400	
4557	0	8479	
4558	0	8458	
4559	0	8533	
4560	0	8549	
4561	0	8543	
4562	0	8595	
4563	0	8652	
4564	0	8698	
4565	0	8702	
4566	0	8684	
4567	0	8772	
4568	0	8789	
4569	0	8799	
4570	0	8833	
4571	0	8799	
4572	0	8819	
4573	0	8867	
4574	0	8869	
4575	0	8867	
4576	0	8940	
4577	0	9001	
4578	0	9162	
4579	0	9137	
4580	0	9093	
4581	0	9177	
4582	0	9224	
4583	0	9267	
4584	0	9301	
4585	0	9319	
4586	0	9348	
4587	0	9445	
4588	0	9652	
4589	0	9772	
4590	0	9887	
4591	0	9915	
4592	0	9843	
4593	0	9850	
4594	0	9898	
4595	0	10016	
4596	0	10304	
4597	0	10447	
4598	0	10464	
4599	0	10549	
4600	0	10729	
4601	0	11012	
4602	0	11314	
4603	0	11693	
4604	0	12044	
4605	0	12361	
4606	0	12682	
4607	0	13084	
4608	0	13470	
4609	0	13821	
4610	0	14087	
4611	0	14373	
4612	0	14593	
4613	0	14825	
4614	0	15166	
4615	0	15585	
4616	0	15920	
4617	0	16204	
4618	0	16540	
4619	0	16903	
4620	0	17359	
4621	0	17711	
4622	0	18187	
4623	0	18564	
4624	0	18911	
4625	0	19213	
4626	0	19575	
4627	0	19991	
4628	0	20375	
4629	0	20732	
4630	0	21156	
4631	0	21597	
4632	0	22007	
4633	0	22534	
4634	0	22958	
4635	0	23387	
4636	0	23671	
4637	0	24028	
4638	0	24425	
4639	0	24807	
4640	0	25165	
4641	0	25537	
4642	0	26075	
4643	0	26457	
4644	0	26769	
4645	0	27036	
4646	0	27373	
4647	0	27681	
4648	0	28065	
4649	0	28415	
4650	0	28673	
4651	0	28981	
4652	0	29195	
4653	0	29465	
4654	0	29713	
4655	0	29901	
4656	0	30154	
4657	0	30428	
4658	0	30713	
4659	0	30949	
4660	0	31095	
4661	0	31207	
4662	0	31365	
4663	0	31579	
4664	0	31814	
4665	0	32044	
4666	0	32265	
4667	0	32469	
4668	0	32603	
4669	0	32777	
4670	0	32881	
4671	0	32984	
4672	0	33164	
4673	0	33247	
4674	0	33417	
4675	0	33607	
4676	0	33812	
4677	0	33940	
4678	0	34017	
4679	0	34101	
4680	0	34175	
4681	0	34279	
4682	0	34415	
4683	0	34519	
4684	0	34657	
4685	0	34665	
4686	0	34755	
4687	0	34831	
4688	0	34925	
4689	0	34943	
4690	0	35001	
4691	0	35085	
4692	0	35128	
4693	0	35124	
4694	0	35137	
4695	0	35103	
4696	0	35105	
4697	0	35077	
4698	0	35172	
4699	0	35271	
4700	0	35285	
4701	0	35281	
4702	0	35292	
4703	0	35197	
4704	0	35093	
4705	0	35001	
4706	0	34892	
4707	0	34801	
4708	0	34740	
4709	0	34681	
4710	0	34588	
4711	0	34533	
4712	0	34496	
4713	0	34497	
4714	0	34509	
4715	0	34420	
4716	0	34319	
4717	0	34201	
4718	0	34132	
4719	0	34109	
4720	0	33991	
4721	0	33927	
4722	0	33871	
4723	0	33815	
4724	0	33740	
4725	0	33623	
4726	0	33540	
4727	0	33473	
4728	0	33415	
4729	0	33419	
4730	0	33404	
4731	0	33412	
4732	0	33401	
4733	0	33295	
4734	0	33227	
4735	0	33193	
4736	0	33129	
4737	0	33029	
4738	0	32937	
4739	0	32825	
4740	0	32777	
4741	0	32701	
4742	0	32705	
4743	0	32692	
4744	0	32745	
4745	0	32801	
4746	0	32818	
4747	0	32802	
4748	0	32759	
4749	0	32758	
4750	0	32699	
4751	0	32613	
4752	0	32528	
4753	0	32525	
4754	0	32469	
4755	0	32287	
4756	0	32240	
4757	0	32187	
4758	0	32117	
4759	0	32165	
4760	0	32150	
4761	0	32133	
4762	0	32116	
4763	0	32101	
4764	0	32084	
4765	0	32105	
4766	0	32005	
4767	0	32072	
4768	0	32015	
4769	0	31943	
4770	0	32000	
4771	0	32001	
4772	0	31903	
4773	0	31997	
4774	0	32025	
4775	0	31940	
4776	0	31903	
4777	0	31827	
4778	0	31805	
4779	0	31761	
4780	0	31715	
4781	0	31747	
4782	0	31716	
4783	0	31653	
4784	0	31569	
4785	0	31517	
4786	0	31526	
4787	0	31461	
4788	0	31533	
4789	0	31491	
4790	0	31509	
4791	0	31513	
4792	0	31555	
4793	0	31466	
4794	0	31491	
4795	0	31404	
4796	0	31351	
4797	0	31289	
4798	0	31255	
4799	0	31245	
4800	0	31200	
4801	0	31249	
4802	0	31255	
4803	0	31197	
4804	0	31170	
4805	0	31061	
4806	0	31110	
4807	0	31060	
4808	0	31109	
4809	0	31133	
4810	0	31153	
4811	0	31221	
4812	0	31212	
4813	0	31178	
4814	0	31164	
4815	0	31188	
4816	0	31099	
4817	0	31167	
4818	0	31165	
4819	0	31152	
4820	0	31108	
4821	0	31112	
4822	0	31140	
4823	0	31207	
4824	0	31238	
4825	0	31245	
4826	0	31213	
4827	0	31157	
4828	0	31087	
4829	0	31147	
4830	0	31183	
4831	0	31257	
4832	0	31303	
4833	0	31251	
4834	0	31289	
4835	0	31380	
4836	0	31348	
4837	0	31293	
4838	0	31336	
4839	0	31395	
4840	0	31352	
4841	0	31364	
4842	0	31403	
4843	0	31364	
4844	0	31277	
4845	0	31267	
4846	0	31293	
4847	0	31271	
4848	0	31237	
4849	0	31217	
4850	0	31261	
4851	0	31300	
4852	0	31304	
4853	0	31340	
4854	0	31417	
4855	0	31439	
4856	0	31537	
4857	0	31552	
4858	0	31553	
4859	0	31615	
4860	0	31660	
4861	0	31716	
4862	0	31651	
4863	0	31635	
4864	0	31562	
4865	0	31593	
4866	0	31556	
4867	0	31557	
4868	0	31591	
4869	0	31709	
4870	0	31740	
4871	0	31663	
4872	0	31704	
4873	0	31717	
4874	0	31709	
4875	0	31733	
4876	0	31812	
4877	0	31837	
4878	0	31857	
4879	0	31864	
4880	0	31879	
4881	0	31933	
4882	0	31912	
4883	0	32029	
4884	0	32059	
4885	0	32217	
4886	0	32357	
4887	0	32446	
4888	0	32596	
4889	0	32717	
4890	0	32719	
4891	0	32672	
4892	0	32633	
4893	0	32601	
4894	0	32697	
4895	0	32782	
4896	0	32792	
4897	0	32851	
4898	0	32929	
4899	0	33061	
4900	0	33233	
4901	0	33433	
4902	0	33505	
4903	0	33660	
4904	0	33793	
4905	0	33904	
4906	0	34021	
4907	0	34073	
4908	0	34100	
4909	0	34119	
4910	0	34128	
4911	0	34052	
4912	0	34045	
4913	0	33987	
4914	0	34045	
4915	0	34071	
4916	0	34126	
4917	0	34191	
4918	0	34257	
4919	0	34315	
4920	0	34380	
4921	0	34437	
4922	0	34448	
4923	0	34398	
4924	0	34411	
4925	0	34441	
4926	0	34447	
4927	0	34483	
4928	0	34433	
4929	0	34441	
4930	0	34361	
4931	0	34306	
4932	0	34341	
4933	0	34335	
4934	0	34341	
4935	0	34369	
4936	0	34327	
4937	0	34287	
4938	0	34241	
4939	0	34225	
4940	0	34175	
4941	0	34231	
4942	0	34204	
4943	0	34176	
4944	0	34154	
4945	0	34140	
4946	0	34117	
4947	0	34089	
4948	0	33983	
4949	0	33911	
4950	0	33949	
4951	0	34005	
4952	0	33976	
4953	0	34052	
4954	0	34187	
4955	0	34225	
4956	0	34265	
4957	0	34279	
4958	0	34279	
4959	0	34187	
4960	0	34203	
4961	0	34212	
4962	0	34249	
4963	0	34277	
4964	0	34249	
4965	0	34233	
4966	0	34285	
4967	0	34397	
4968	0	34433	
4969	0	34429	
4970	0	34404	
4971	0	34383	
4972	0	34373	
4973	0	34277	
4974	0	34319	
4975	0	34276	
4976	0	34314	
4977	0	34367	
4978	0	34461	
4979	0	34556	
4980	0	34465	
4981	0	34405	
4982	0	34421	
4983	0	34537	
4984	0	34612	
4985	0	34689	
4986	0	34601	
4987	0	34702	
4988	0	34663	
4989	0	34625	
4990	0	34561	
4991	0	34423	
4992	0	34433	
4993	0	34393	
4994	0	34469	
4995	0	34451	
4996	0	34525	
4997	0	34563	
4998	0	34525	
4999	0	34597	
5000	0	34685	
5001	0	34783	
5002	0	34779	
5003	0	34759	
5004	0	34700	
5005	0	34737	
5006	0	34808	
5007	0	34733	
5008	0	34705	
5009	0	34601	
5010	0	34660	
5011	0	34766	
5012	0	34730	
5013	0	34817	
5014	0	34809	
5015	0	34812	
5016	0	34795	
5017	0	34866	
5018	0	34900	
5019	0	34831	
5020	0	34849	
5021	0	34851	
5022	0	34880	
5023	0	34882	
5024	0	34821	
5025	0	34821	
5026	0	34847	
5027	0	34823	
5028	0	34864	
5029	0	34849	
5030	0	34821	
5031	0	34861	
5032	0	34877	
5033	0	34905	
5034	0	34872	
5035	0	34916	
5036	0	34901	
5037	0	34855	
5038	0	34809	
5039	0	34749	
5040	0	34768	
5041	0	34752	
5042	0	34679	
5043	0	34674	
5044	0	34645	
5045	0	34725	
5046	0	34826	
5047	0	34823	
5048	0	34809	
5049	0	34841	
5050	0	34833	
5051	0	34860	
5052	0	34827	
5053	0	34813	
5054	0	34757	
5055	0	34788	
5056	0	34765	
5057	0	34820	
5058	0	34949	
5059	0	34961	
5060	0	34987	
5061	0	34940	
5062	0	34982	
5063	0	34854	
5064	0	34852	
5065	0	34913	
5066	0	34878	
5067	0	34881	
5068	0	34833	
5069	0	34908	
5070	0	34907	
5071	0	34817	
5072	0	34973	
5073	0	34988	
5074	0	35069	
5075	0	35071	
5076	0	34999	
5077	0	35077	
5078	0	35107	
5079	0	35012	
5080	0	34968	
5081	0	34999	
5082	0	34965	
5083	0	35023	
5084	0	34989	
5085	0	34981	
5086	0	35020	
5087	0	34959	
5088	0	34993	
5089	0	34973	
5090	0	34977	
5091	0	35044	
5092	0	35043	
5093	0	35009	
5094	0	34962	
5095	0	34965	
5096	0	34935	
5097	0	34927	
5098	0	34861	
5099	0	34893	
5100	0	34953	
5101	0	34979	
5102	0	35089	
5103	0	35146	
5104	0	35127	
5105	0	35036	
5106	0	35108	
5107	0	35157	
5108	0	35129	
5109	0	34935	
5110	0	34837	
5111	0	34756	
5112	0	34773	
5113	0	34804	
5114	0	34779	
5115	0	34861	
5116	0	34908	
5117	0	34863	
5118	0	34821	
5119	0	34828	
5120	0	34873	
5121	0	34972	
5122	0	34880	
5123	0	34881	
5124	0	34947	
5125	0	34949	
5126	0	34927	
5127	0	34955	
5128	0	35057	
5129	0	35013	
5130	0	35037	
5131	0	35032	
5132	0	35037	
5133	0	35061	
5134	0	35092	
5135	0	35214	
5136	0	35207	
5137	0	35081	
5138	0	35005	
5139	0	34933	
5140	0	34980	
5141	0	34868	
5142	0	34849	
5143	0	34785	
5144	0	34843	
5145	0	34827	
5146	0	34871	
5147	0	34943	
5148	0	34919	
5149	0	34915	
5150	0	34969	
5151	0	35069	
5152	0	35100	
5153	0	35077	
5154	0	35041	
5155	0	35007	
5156	0	35009	
5157	0	34892	
5158	0	34871	
5159	0	34940	
5160	0	35012	
5161	0	34924	
5162	0	34875	
5163	0	34833	
5164	0	34861	
5165	0	34916	
5166	0	34900	
5167	0	34892	
5168	0	34919	
5169	0	34943	
5170	0	34845	
5171	0	34817	
5172	0	34757	
5173	0	34781	
5174	0	34884	
5175	0	34813	
5176	0	34857	
5177	0	34945	
5178	0	34989	
5179	0	34939	
5180	0	34936	
5181	0	34887	
5182	0	34992	
5183	0	35008	
5184	0	35057	
5185	0	35064	
5186	0	35048	
5187	0	35039	
5188	0	34948	
5189	0	34997	
5190	0	35008	
5191	0	35029	
5192	0	35033	
5193	0	34983	
5194	0	34898	
5195	0	34920	
5196	0	34917	
5197	0	34901	
5198	0	34952	
5199	0	34950	
5200	0	34961	
5201	0	34989	
5202	0	34993	
5203	0	34995	
5204	0	34841	
5205	0	34885	
5206	0	34884	
5207	0	34847	
5208	0	34860	
5209	0	34973	
5210	0	35033	
5211	0	35109	
5212	0	35199	
5213	0	35185	
5214	0	35173	
5215	0	35108	
5216	0	35033	
5217	0	34973	
5218	0	34901	
5219	0	34919	
5220	0	34893	
5221	0	34785	
5222	0	34781	
5223	0	34737	
5224	0	34813	
5225	0	34925	
5226	0	35105	
5227	0	35108	
5228	0	35111	
5229	0	35153	
5230	0	35167	
5231	0	35125	
5232	0	35209	
5233	0	35204	
5234	0	35159	
5235	0	35115	
5236	0	35027	
5237	0	35021	
5238	0	35100	
5239	0	35124	
5240	0	35076	
5241	0	35081	
5242	0	35007	
5243	0	35009	
5244	0	34993	
5245	0	35005	
5246	0	35037	
5247	0	34977	
5248	0	35053	
5249	0	34997	
5250	0	34977	
5251	0	35009	
5252	0	35028	
5253	0	34989	
5254	0	35000	
5255	0	35012	
5256	0	34981	
5257	0	34989	
5258	0	35000	
5259	0	34947	
5260	0	34817	
5261	0	34768	
5262	0	34871	
5263	0	34995	
5264	0	35040	
5265	0	35041	
5266	0	35039	
5267	0	35017	
5268	0	35049	
5269	0	35068	
5270	0	35069	
5271	0	34991	
5272	0	34995	
5273	0	35017	
5274	0	35092	
5275	0	35053	
5276	0	35045	
5277	0	35071	
5278	0	35103	
5279	0	35125	
5280	0	35104	
5281	0	35041	
5282	0	35074	
5283	0	35005	
5284	0	34993	
5285	0	35063	
5286	0	34987	
5287	0	34914	
5288	0	34901	
5289	0	34957	
5290	0	34941	
5291	0	34840	
5292	0	34900	
5293	0	34885	
5294	0	34909	
5295	0	34919	
5296	0	34995	
5297	0	35012	
5298	0	35085	
5299	0	35138	
5300	0	35117	
5301	0	35067	
5302	0	35009	
5303	0	34897	
5304	0	34831	
5305	0	34849	
5306	0	34837	
5307	0	34828	
5308	0	34969	
5309	0	34993	
5310	0	34923	
5311	0	35005	
5312	0	34921	
5313	0	34876	
5314	0	34860	
5315	0	34897	
5316	0	34849	
5317	0	34885	
5318	0	34857	
5319	0	34885	
5320	0	34981	
5321	0	35041	
5322	0	35013	
5323	0	35077	
5324	0	35015	
5325	0	35051	
5326	0	35083	
5327	0	35033	
5328	0	34953	
5329	0	34901	
5330	0	34893	
5331	0	34905	
5332	0	34879	
5333	0	34887	
5334	0	34853	
5335	0	34889	
5336	0	34908	
5337	0	34853	
5338	0	34824	
5339	0	34884	
5340	0	34889	
5341	0	34977	
5342	0	34891	
5343	0	34816	
5344	0	34793	
5345	0	34789	
5346	0	34732	
5347	0	34788	
5348	0	34713	
5349	0	34779	
5350	0	34781	
5351	0	34805	
5352	0	34852	
5353	0	34868	
5354	0	34900	
5355	0	34850	
5356	0	34855	
5357	0	34839	
5358	0	34871	
5359	0	34890	
5360	0	34915	
5361	0	34991	
5362	0	34919	
5363	0	34836	
5364	0	34767	
5365	0	34773	
5366	0	34749	
5367	0	34848	
5368	0	34743	
5369	0	34753	
5370	0	34732	
5371	0	34721	
5372	0	34777	
5373	0	34709	
5374	0	34649	
5375	0	34659	
5376	0	34745	
5377	0	34793	
5378	0	34749	
5379	0	34735	
5380	0	34843	
5381	0	34881	
5382	0	34890	
5383	0	34788	
5384	0	34804	
5385	0	34812	
5386	0	34787	
5387	0	34753	
5388	0	34748	
5389	0	34791	
5390	0	34778	
5391	0	34828	
5392	0	34873	
5393	0	34805	
5394	0	34775	
5395	0	34799	
5396	0	34805	
5397	0	34806	
5398	0	34802	
5399	0	34751	
5400	0	34703	
5401	0	34724	
5402	0	34756	
5403	0	34781	
5404	0	34784	
5405	0	34797	
5406	0	34764	
5407	0	34831	
5408	0	34825	
5409	0	34871	
5410	0	34847	
5411	0	34772	
5412	0	34637	
5413	0	34671	
5414	0	34669	
5415	0	34709	
5416	0	34717	
5417	0	34750	
5418	0	34669	
5419	0	34692	
5420	0	34672	
5421	0	34773	
5422	0	34771	
5423	0	34751	
5424	0	34819	
5425	0	34797	
5426	0	34828	
5427	0	34804	
5428	0	34757	
5429	0	34671	
5430	0	34672	
5431	0	34765	
5432	0	34721	
5433	0	34689	
5434	0	34545	
5435	0	34500	
5436	0	34467	
5437	0	34612	
5438	0	34645	
5439	0	34607	
5440	0	34545	
5441	0	34547	
5442	0	34589	
5443	0	34661	
5444	0	34691	
5445	0	34777	
5446	0	34831	
5447	0	34843	
5448	0	34801	
5449	0	34725	
5450	0	34765	
5451	0	34661	
5452	0	34724	
5453	0	34653	
5454	0	34631	
5455	0	34637	
5456	0	34685	
5457	0	34782	
5458	0	34761	
5459	0	34761	
5460	0	34812	
5461	0	34735	
5462	0	34745	
5463	0	34693	
5464	0	34641	
5465	0	34647	
5466	0	34557	
5467	0	34525	
5468	0	34551	
5469	0	34657	
5470	0	34653	
5471	0	34672	
5472	0	34671	
5473	0	34711	
5474	0	34753	
5475	0	34737	
5476	0	34681	
5477	0	34722	
5478	0	34807	
5479	0	34796	
5480	0	34825	
5481	0	34923	
5482	0	34908	
5483	0	34879	
5484	0	34784	
5485	0	34847	
5486	0	34805	
5487	0	34737	
5488	0	34705	
5489	0	34804	
5490	0	34788	
5491	0	34883	
5492	0	34895	
5493	0	34805	
5494	0	34825	
5495	0	34829	
5496	0	34839	
5497	0	34836	
5498	0	34851	
5499	0	34842	
5500	0	34879	
5501	0	34839	
5502	0	34749	
5503	0	34799	
5504	0	34884	
5505	0	34939	
5506	0	34919	
5507	0	35017	
5508	0	35045	
5509	0	34993	
5510	0	35061	
5511	0	35008	
5512	0	34961	
5513	0	34897	
5514	0	34901	
5515	0	34877	
5516	0	34859	
5517	0	34871	
5518	0	34855	
5519	0	34789	
5520	0	34825	
5521	0	34807	
5522	0	34831	
5523	0	34839	
5524	0	34845	
5525	0	34749	
5526	0	34748	
5527	0	34753	
5528	0	34700	
5529	0	34667	
5530	0	34730	
5531	0	34789	
5532	0	34787	
5533	0	34789	
5534	0	34830	
5535	0	34869	
5536	0	34892	
5537	0	34847	
5538	0	34817	
5539	0	34703	
5540	0	34780	
5541	0	34791	
5542	0	34845	
5543	0	34825	
5544	0	34813	
5545	0	34837	
5546	0	34857	
5547	0	34873	
5548	0	34996	
5549	0	35064	
5550	0	35205	
5551	0	35305	
5552	0	35383	
5553	0	35512	
5554	0	35564	
5555	0	35627	
5556	0	35621	
5557	0	35700	
5558	0	35677	
5559	0	35709	
5560	0	35669	
5561	0	35684	
5562	0	35557	
5563	0	35556	
5564	0	35528	
5565	0	35489	
5566	0	35457	
5567	0	35405	
5568	0	35425	
5569	0	35401	
5570	0	35365	
5571	0	35357	
5572	0	35361	
5573	0	35353	
5574	0	35321	
5575	0	35272	
5576	0	35136	
5577	0	35116	
5578	0	35151	
5579	0	35156	
5580	0	35140	
5581	0	35034	
5582	0	35051	
5583	0	34999	
5584	0	34957	
5585	0	34864	
5586	0	34817	
5587	0	34741	
5588	0	34711	
5589	0	34676	
5590	0	34796	
5591	0	34792	
5592	0	34781	
5593	0	34881	
5594	0	34932	
5595	0	34909	
5596	0	34819	
5597	0	34829	
5598	0	34783	
5599	0	34823	
5600	0	34853	
5601	0	34959	
5602	0	34965	
5603	0	34954	
5604	0	34989	
5605	0	34961	
5606	0	34968	
5607	0	34753	
5608	0	34677	
5609	0	34717	
5610	0	34713	
5611	0	34645	
5612	0	34671	
5613	0	34693	
5614	0	34721	
5615	0	34653	
5616	0	34748	
5617	0	34769	
5618	0	34717	
5619	0	34738	
5620	0	34765	
5621	0	34784	
5622	0	34789	
5623	0	34757	
5624	0	34804	
5625	0	34829	
5626	0	34852	
5627	0	34860	
5628	0	34839	
5629	0	34879	
5630	0	34817	
5631	0	34785	
5632	0	34767	
5633	0	34752	
5634	0	34781	
5635	0	34759	
5636	0	34781	
5637	0	34745	
5638	0	34749	
5639	0	34701	
5640	0	34703	
5641	0	34641	
5642	0	34628	
5643	0	34760	
5644	0	34905	
5645	0	34965	
5646	0	34949	
5647	0	34756	
5648	0	34723	
5649	0	34751	
5650	0	34694	
5651	0	34655	
5652	0	34693	
5653	0	34621	
5654	0	34489	
5655	0	34439	
5656	0	34581	
5657	0	34668	
5658	0	34721	
5659	0	34793	
5660	0	34671	
5661	0	34743	
5662	0	34719	
5663	0	34620	
5664	0	34606	
5665	0	34596	
5666	0	34561	
5667	0	34583	
5668	0	34579	
5669	0	34629	
5670	0	34707	
5671	0	34773	
5672	0	34733	
5673	0	34625	
5674	0	34653	
5675	0	34612	
5676	0	34615	
5677	0	34593	
5678	0	34584	
5679	0	34613	
5680	0	34657	
5681	0	34625	
5682	0	34593	
5683	0	34540	
5684	0	34525	
5685	0	34529	
5686	0	34441	
5687	0	34491	
5688	0	34570	
5689	0	34612	
5690	0	34585	
5691	0	34609	
5692	0	34575	
5693	0	34597	
5694	0	34660	
5695	0	34669	
5696	0	34633	
5697	0	34687	
5698	0	34627	
5699	0	34619	
5700	0	34649	
5701	0	34663	
5702	0	34737	
5703	0	34735	
5704	0	34751	
5705	0	34721	
5706	0	34755	
5707	0	34740	
5708	0	34772	
5709	0	34752	
5710	0	34760	
5711	0	34735	
5712	0	34583	
5713	0	34628	
5714	0	34585	
5715	0	34669	
5716	0	34657	
5717	0	34675	
5718	0	34669	
5719	0	34558	
5720	0	34535	
5721	0	34521	
5722	0	34439	
5723	0	34463	
5724	0	34485	
5725	0	34529	
5726	0	34587	
5727	0	34537	
5728	0	34537	
5729	0	34579	
5730	0	34509	
5731	0	34461	
5732	0	34433	
5733	0	34321	
5734	0	34345	
5735	0	34417	
5736	0	34381	
5737	0	34469	
5738	0	34481	
5739	0	34405	
5740	0	34457	
5741	0	34485	
5742	0	34509	
5743	0	34549	
5744	0	34519	
5745	0	34439	
5746	0	34369	
5747	0	34405	
5748	0	34308	
5749	0	34359	
5750	0	34437	
5751	0	34507	
5752	0	34587	
5753	0	34615	
5754	0	34579	
5755	0	34597	
5756	0	34629	
5757	0	34597	
5758	0	34521	
5759	0	34523	
5760	0	34533	
5761	0	34523	
5762	0	34461	
5763	0	34441	
5764	0	34557	
5765	0	34577	
5766	0	34591	
5767	0	34571	
5768	0	34566	
5769	0	34481	
5770	0	34316	
5771	0	34300	
5772	0	34237	
5773	0	34237	
5774	0	34256	
5775	0	34264	
5776	0	34333	
5777	0	34356	
5778	0	34335	
5779	0	34445	
5780	0	34462	
5781	0	34479	
5782	0	34415	
5783	0	34345	
5784	0	34252	
5785	0	34288	
5786	0	34283	
5787	0	34301	
5788	0	34369	
5789	0	34333	
5790	0	34341	
5791	0	34333	
5792	0	34425	
5793	0	34383	
5794	0	34375	
5795	0	34399	
5796	0	34413	
5797	0	34457	
5798	0	34477	
5799	0	34497	
5800	0	34567	
5801	0	34527	
5802	0	34469	
5803	0	34481	
5804	0	34405	
5805	0	34401	
5806	0	34385	
5807	0	34376	
5808	0	34381	
5809	0	34385	
5810	0	34295	
5811	0	34372	
5812	0	34397	
5813	0	34460	
5814	0	34547	
5815	0	34593	
5816	0	34593	
5817	0	34553	
5818	0	34653	
5819	0	34587	
5820	0	34463	
5821	0	34365	
5822	0	34429	
5823	0	34437	
5824	0	34409	
5825	0	34497	
5826	0	34560	
5827	0	34620	
5828	0	34547	
5829	0	34517	
5830	0	34535	
5831	0	34504	
5832	0	34525	
5833	0	34517	
5834	0	34559	
5835	0	34651	
5836	0	34593	
5837	0	34521	
5838	0	34445	
5839	0	34485	
5840	0	34500	
5841	0	34401	
5842	0	34361	
5843	0	34297	
5844	0	34265	
5845	0	34272	
5846	0	34264	
5847	0	34261	
5848	0	34271	
5849	0	34221	
5850	0	34149	
5851	0	34199	
5852	0	34253	
5853	0	34268	
5854	0	34220	
5855	0	34341	
5856	0	34381	
5857	0	34439	
5858	0	34396	
5859	0	34471	
5860	0	34401	
5861	0	34289	
5862	0	34223	
5863	0	34213	
5864	0	34304	
5865	0	34335	
5866	0	34425	
5867	0	34369	
5868	0	34333	
5869	0	34317	
5870	0	34316	
5871	0	34305	
5872	0	34244	
5873	0	34267	
5874	0	34157	
5875	0	34181	
5876	0	34119	
5877	0	34037	
5878	0	34129	
5879	0	34052	
5880	0	34096	
5881	0	34119	
5882	0	34127	
5883	0	34089	
5884	0	34073	
5885	0	34017	
5886	0	34011	
5887	0	34055	
5888	0	34113	
5889	0	34123	
5890	0	34081	
5891	0	34117	
5892	0	34189	
5893	0	34201	
5894	0	34041	
5895	0	33975	
5896	0	34037	
5897	0	34085	
5898	0	34069	
5899	0	34060	
5900	0	34167	
5901	0	34132	
5902	0	34121	
5903	0	34157	
5904	0	34215	
5905	0	34249	
5906	0	34223	
5907	0	34276	
5908	0	34219	
5909	0	34148	
5910	0	34196	
5911	0	34144	
5912	0	34204	
5913	0	34249	
5914	0	34167	
5915	0	34113	
5916	0	34049	
5917	0	34151	
5918	0	34211	
5919	0	34193	
5920	0	34273	
5921	0	34289	
5922	0	34276	
5923	0	34245	
5924	0	34265	
5925	0	34233	
5926	0	34141	
5927	0	34089	
5928	0	34112	
5929	0	33994	
5930	0	33949	
5931	0	33955	
5932	0	33985	
5933	0	33969	
5934	0	34052	
5935	0	34108	
5936	0	34140	
5937	0	34135	
5938	0	34125	
5939	0	34181	
5940	0	34176	
5941	0	34185	
5942	0	34141	
5943	0	34220	
5944	0	34212	
5945	0	34174	
5946	0	34137	
5947	0	34156	
5948	0	34181	
5949	0	34109	
5950	0	34021	
5951	0	34004	
5952	0	34037	
5953	0	34081	
5954	0	34076	
5955	0	34081	
5956	0	34180	
5957	0	34124	
5958	0	34173	
5959	0	34232	
5960	0	34156	
5961	0	34052	
5962	0	34103	
5963	0	34041	
5964	0	34139	
5965	0	34127	
5966	0	34191	
5967	0	34168	
5968	0	34089	
5969	0	34041	
5970	0	34100	
5971	0	34177	
5972	0	34119	
5973	0	34124	
5974	0	34105	
5975	0	34185	
5976	0	34157	
5977	0	34129	
5978	0	34097	
5979	0	34004	
5980	0	33934	
5981	0	33953	
5982	0	33916	
5983	0	33907	
5984	0	33892	
5985	0	33953	
5986	0	34053	
5987	0	33975	
5988	0	33999	
5989	0	34124	
5990	0	34173	
5991	0	34156	
5992	0	34212	
5993	0	34164	
5994	0	34107	
5995	0	34134	
5996	0	34207	
5997	0	34134	
5998	0	34129	
5999	0	34213	
6000	0	34309	
6001	0	34308	
6002	0	34324	
6003	0	34245	
6004	0	34179	
6005	0	34205	
6006	0	34100	
6007	0	34128	
6008	0	34172	
6009	0	34183	
6010	0	34188	
6011	0	34151	
6012	0	34133	
6013	0	34112	
6014	0	34101	
6015	0	34039	
6016	0	34157	
6017	0	34189	
6018	0	34229	
6019	0	34337	
6020	0	34431	
6021	0	34546	
6022	0	34557	
6023	0	34469	
6024	0	34463	
6025	0	34429	
6026	0	34380	
6027	0	34334	
6028	0	34269	
6029	0	34241	
6030	0	34256	
6031	0	34297	
6032	0	34276	
6033	0	34365	
6034	0	34415	
6035	0	34477	
6036	0	34337	
6037	0	34300	
6038	0	34245	
6039	0	34169	
6040	0	34228	
6041	0	34225	
6042	0	34193	
6043	0	34133	
6044	0	34151	
6045	0	34188	
6046	0	34165	
6047	0	34151	
6048	0	34213	
6049	0	34337	
6050	0	34281	
6051	0	34303	
6052	0	34276	
6053	0	34285	
6054	0	34207	
6055	0	34240	
6056	0	34316	
6057	0	34437	
6058	0	34492	
6059	0	34567	
6060	0	34425	
6061	0	34415	
6062	0	34369	
6063	0	34341	
6064	0	34381	
6065	0	34373	
6066	0	34311	
6067	0	34337	
6068	0	34327	
6069	0	34234	
6070	0	34249	
6071	0	34249	
6072	0	34297	
6073	0	34262	
6074	0	34325	
6075	0	34284	
6076	0	34260	
6077	0	34239	
6078	0	34250	
6079	0	34251	
6080	0	34277	
6081	0	34205	
6082	0	34165	
6083	0	34137	
6084	0	34183	
6085	0	34273	
6086	0	34241	
6087	0	34245	
6088	0	34140	
6089	0	34172	
6090	0	34223	
6091	0	34189	
6092	0	34204	
6093	0	34137	
6094	0	34117	
6095	0	34052	
6096	0	34125	
6097	0	34127	
6098	0	34177	
6099	0	34132	
6100	0	34097	
6101	0	34217	
6102	0	34287	
6103	0	34325	
6104	0	34349	
6105	0	34405	
6106	0	34397	
6107	0	34321	
6108	0	34317	
6109	0	34250	
6110	0	34332	
6111	0	34307	
6112	0	34337	
6113	0	34367	
6114	0	34377	
6115	0	34341	
6116	0	34437	
6117	0	34327	
6118	0	34384	
6119	0	34249	
6120	0	34220	
6121	0	34176	
6122	0	34245	
6123	0	34323	
6124	0	34337	
6125	0	34370	
6126	0	34251	
6127	0	34209	
6128	0	34171	
6129	0	34113	
6130	0	34069	
6131	0	34047	
6132	0	34133	
6133	0	34124	
6134	0	34125	
6135	0	34105	
6136	0	34097	
6137	0	34077	
6138	0	34093	
6139	0	34093	
6140	0	33988	
6141	0	34021	
6142	0	34081	
6143	0	34231	
6144	0	34276	
6145	0	34260	
6146	0	34233	
6147	0	34241	
6148	0	34231	
6149	0	34207	
6150	0	34183	
6151	0	34187	
6152	0	34177	
6153	0	34333	
6154	0	34317	
6155	0	34244	
6156	0	34260	
6157	0	34189	
6158	0	34156	
6159	0	34101	
6160	0	34072	
6161	0	34013	
6162	0	34009	
6163	0	33981	
6164	0	33989	
6165	0	34013	
6166	0	33983	
6167	0	34053	
6168	0	34088	
6169	0	34156	
6170	0	34219	
6171	0	34173	
6172	0	34140	
6173	0	34141	
6174	0	34140	
6175	0	34092	
6176	0	34124	
6177	0	34125	
6178	0	34199	
6179	0	34313	
6180	0	34355	
6181	0	34297	
6182	0	34359	
6183	0	34235	
6184	0	34236	
6185	0	34209	
6186	0	34215	
6187	0	34133	
6188	0	34137	
6189	0	34192	
6190	0	34225	
6191	0	34245	
6192	0	34277	
6193	0	34351	
6194	0	34419	
6195	0	34419	
6196	0	34481	
6197	0	34465	
6198	0	34433	
6199	0	34411	
6200	0	34328	
6201	0	34293	
6202	0	34199	
6203	0	34045	
6204	0	34116	
6205	0	34159	
6206	0	34180	
6207	0	34205	
6208	0	34177	
6209	0	34233	
6210	0	34253	
6211	0	34225	
6212	0	34223	
6213	0	34273	
6214	0	34277	
6215	0	34322	
6216	0	34280	
6217	0	34273	
6218	0	34224	
6219	0	34266	
6220	0	34287	
6221	0	34217	
6222	0	34175	
6223	0	34185	
6224	0	34171	
6225	0	34141	
6226	0	34133	
6227	0	34084	
6228	0	34065	
6229	0	34135	
6230	0	34177	
6231	0	34173	
6232	0	34171	
6233	0	34213	
6234	0	34217	
6235	0	34205	
6236	0	34175	
6237	0	34217	
6238	0	34277	
6239	0	34285	
6240	0	34368	
6241	0	34348	
6242	0	34295	
6243	0	34281	
6244	0	34249	
6245	0	34175	
6246	0	34123	
6247	0	34193	
6248	0	34213	
6249	0	34284	
6250	0	34353	
6251	0	34365	
6252	0	34361	
6253	0	34309	
6254	0	34301	
6255	0	34249	
6256	0	34232	
6257	0	34185	
6258	0	34207	
6259	0	34261	
6260	0	34306	
6261	0	34253	
6262	0	34223	
6263	0	34340	
6264	0	34340	
6265	0	34345	
6266	0	34301	
6267	0	34297	
6268	0	34329	
6269	0	34354	
6270	0	34295	
6271	0	34259	
6272	0	34359	
6273	0	34368	
6274	0	34260	
6275	0	34173	
6276	0	34128	
6277	0	34124	
6278	0	34076	
6279	0	34055	
6280	0	34170	
6281	0	34153	
6282	0	34188	
6283	0	34249	
6284	0	34181	
6285	0	34149	
6286	0	34073	
6287	0	34061	
6288	0	34087	
6289	0	33989	
6290	0	33985	
6291	0	33967	
6292	0	34009	
6293	0	34097	
6294	0	34108	
6295	0	34130	
6296	0	34116	
6297	0	34121	
6298	0	34091	
6299	0	34157	
6300	0	34097	
6301	0	34149	
6302	0	34113	
6303	0	34104	
6304	0	34061	
6305	0	34092	
6306	0	34057	
6307	0	34005	
6308	0	33989	
6309	0	33975	
6310	0	34020	
6311	0	34069	
6312	0	34057	
6313	0	33989	
6314	0	33965	
6315	0	34016	
6316	0	33955	
6317	0	33889	
6318	0	33917	
6319	0	33940	
6320	0	33953	
6321	0	33913	
6322	0	33893	
6323	0	33925	
6324	0	33996	
6325	0	33993	
6326	0	34049	
6327	0	34097	
6328	0	34085	
6329	0	34182	
6330	0	34125	
6331	0	34105	
6332	0	34085	
6333	0	34089	
6334	0	34124	
6335	0	34053	
6336	0	34033	
6337	0	34036	
6338	0	34121	
6339	0	34177	
6340	0	34221	
6341	0	34205	
6342	0	34199	
6343	0	34129	
6344	0	34115	
6345	0	34084	
6346	0	34065	
6347	0	34001	
6348	0	33983	
6349	0	33949	
6350	0	34065	
6351	0	34205	
6352	0	34199	
6353	0	34169	
6354	0	34239	
6355	0	34274	
6356	0	34345	
6357	0	34365	
6358	0	34327	
6359	0	34276	
6360	0	34329	
6361	0	34257	
6362	0	34189	
6363	0	34100	
6364	0	34023	
6365	0	34002	
6366	0	34071	
6367	0	34114	
6368	0	34120	
6369	0	34095	
6370	0	34109	
6371	0	34233	
6372	0	34281	
6373	0	34220	
6374	0	34204	
6375	0	34243	
6376	0	34297	
6377	0	34352	
6378	0	34425	
6379	0	34509	
6380	0	34553	
6381	0	34493	
6382	0	34379	
6383	0	34341	
6384	0	34281	
6385	0	34301	
6386	0	34237	
6387	0	34243	
6388	0	34287	
6389	0	34396	
6390	0	34452	
6391	0	34508	
6392	0	34536	
6393	0	34425	
6394	0	34405	
6395	0	34372	
6396	0	34309	
6397	0	34244	
6398	0	34256	
6399	0	34214	
6400	0	34283	
6401	0	34305	
6402	0	34279	
6403	0	34273	
6404	0	34305	
6405	0	34333	
6406	0	34372	
6407	0	34436	
6408	0	34354	
6409	0	34396	
6410	0	34444	
6411	0	34473	
6412	0	34465	
6413	0	34409	
6414	0	34513	
6415	0	34479	
6416	0	34561	
6417	0	34537	
6418	0	34461	
6419	0	34437	
6420	0	34521	
6421	0	34512	
6422	0	34507	
6423	0	34472	
6424	0	34445	
6425	0	34409	
6426	0	34461	
6427	0	34453	
6428	0	34388	
6429	0	34435	
6430	0	34419	
6431	0	34390	
6432	0	34452	
6433	0	34495	
6434	0	34358	
6435	0	34414	
6436	0	34311	
6437	0	34347	
6438	0	34327	
6439	0	34363	
6440	0	34308	
6441	0	34229	
6442	0	34272	
6443	0	34244	
6444	0	34249	
6445	0	34265	
6446	0	34311	
6447	0	34318	
6448	0	34343	
6449	0	34360	
6450	0	34420	
6451	0	34459	
6452	0	34447	
6453	0	34437	
6454	0	34375	
6455	0	34252	
6456	0	34279	
6457	0	34224	
6458	0	34229	
6459	0	34297	
6460	0	34389	
6461	0	34429	
6462	0	34467	
6463	0	34541	
6464	0	34547	
6465	0	34399	
6466	0	34300	
6467	0	34229	
6468	0	34263	
6469	0	34273	
6470	0	34297	
6471	0	34317	
6472	0	34389	
6473	0	34436	
6474	0	34513	
6475	0	34581	
6476	0	34485	
6477	0	34493	
6478	0	34545	
6479	0	34596	
6480	0	34624	
6481	0	34635	
6482	0	34656	
6483	0	34609	
6484	0	34535	
6485	0	34601	
6486	0	34580	
6487	0	34641	
6488	0	34653	
6489	0	34551	
6490	0	34401	
6491	0	34359	
6492	0	34356	
6493	0	34377	
6494	0	34356	
6495	0	34309	
6496	0	34429	
6497	0	34417	
6498	0	34390	
6499	0	34397	
6500	0	34405	
6501	0	34425	
6502	0	34469	
6503	0	34485	
6504	0	34605	
6505	0	34721	
6506	0	34825	
6507	0	34809	
6508	0	34708	
6509	0	34705	
6510	0	34644	
6511	0	34559	
6512	0	34481	
6513	0	34445	
6514	0	34379	
6515	0	34361	
6516	0	34384	
6517	0	34377	
6518	0	34379	
6519	0	34375	
6520	0	34453	
6521	0	34501	
6522	0	34476	
6523	0	34541	
6524	0	34561	
6525	0	34601	
6526	0	34589	
6527	0	34621	
6528	0	34769	
6529	0	34861	
6530	0	34989	
6531	0	35008	
6532	0	35045	
6533	0	35055	
6534	0	35201	
6535	0	35320	
6536	0	35420	
6537	0	35463	
6538	0	35617	
6539	0	35720	
6540	0	35993	
6541	0	36244	
6542	0	36293	
6543	0	36116	
6544	0	35978	
6545	0	35879	
6546	0	35926	
6547	0	35949	
6548	0	35993	
6549	0	36012	
6550	0	35997	
6551	0	36193	
6552	0	36255	
6553	0	36605	
6554	0	36797	
6555	0	37117	
6556	0	37388	
6557	0	37636	
6558	0	37855	
6559	0	38069	
6560	0	38301	
6561	0	38628	
6562	0	39007	
6563	0	39395	
6564	0	39687	
6565	0	39885	
6566	0	40191	
6567	0	40479	
6568	0	40824	
6569	0	41069	
6570	0	41269	
6571	0	41617	
6572	0	41804	
6573	0	41927	
6574	0	42011	
6575	0	42116	
6576	0	42340	
6577	0	42436	
6578	0	42540	
6579	0	42712	
6580	0	42884	
6581	0	43232	
6582	0	43628	
6583	0	43857	
6584	0	44111	
6585	0	44391	
6586	0	44693	
6587	0	44984	
6588	0	45181	
6589	0	45188	
6590	0	45268	
6591	0	45455	
6592	0	45783	
6593	0	46141	
6594	0	46420	
6595	0	46529	
6596	0	46537	
6597	0	46604	
6598	0	46568	
6599	0	46593	
6600	0	46727	
6601	0	46941	
6602	0	47133	
6603	0	47213	
6604	0	47208	
6605	0	47104	
6606	0	47096	
6607	0	47237	
6608	0	47349	
6609	0	47380	
6610	0	47465	
6611	0	47585	
6612	0	47805	
6613	0	47957	
6614	0	48028	
6615	0	47943	
6616	0	47773	
6617	0	47636	
6618	0	47533	
6619	0	47573	
6620	0	47556	
6621	0	47536	
6622	0	47568	
6623	0	47549	
6624	0	47532	
6625	0	47548	
6626	0	47656	
6627	0	47613	
6628	0	47589	
6629	0	47504	
6630	0	47389	
6631	0	47092	
6632	0	46871	
6633	0	46489	
6634	0	46255	
6635	0	46183	
6636	0	46301	
6637	0	46484	
6638	0	46621	
6639	0	46628	
6640	0	46509	
6641	0	46421	
6642	0	46272	
6643	0	46181	
6644	0	46215	
6645	0	46111	
6646	0	45948	
6647	0	45919	
6648	0	45860	
6649	0	45917	
6650	0	45824	
6651	0	45761	
6652	0	45676	
6653	0	45620	
6654	0	45621	
6655	0	45612	
6656	0	45785	
6657	0	46013	
6658	0	46067	
6659	0	45931	
6660	0	45743	
6661	0	45612	
6662	0	45445	
6663	0	45441	
6664	0	45501	
6665	0	45507	
6666	0	45461	
6667	0	45441	
6668	0	45373	
6669	0	45341	
6670	0	45217	
6671	0	45245	
6672	0	45268	
6673	0	45173	
6674	0	45345	
6675	0	45424	
6676	0	45404	
6677	0	45401	
6678	0	45345	
6679	0	45353	
6680	0	45272	
6681	0	45237	
6682	0	45271	
6683	0	45305	
6684	0	45501	
6685	0	45543	
6686	0	45439	
6687	0	45292	
6688	0	45075	
6689	0	44969	
6690	0	45181	
6691	0	45365	
6692	0	45409	
6693	0	45589	
6694	0	45672	
6695	0	45771	
6696	0	45929	
6697	0	46157	
6698	0	46265	
6699	0	46303	
6700	0	46164	
6701	0	46231	
6702	0	46309	
6703	0	46380	
6704	0	46501	
6705	0	46457	
6706	0	46533	
6707	0	46485	
6708	0	46559	
6709	0	46712	
6710	0	46695	
6711	0	46773	
6712	0	46797	
6713	0	46949	
6714	0	47237	
6715	0	47513	
6716	0	47532	
6717	0	47619	
6718	0	47820	
6719	0	47925	
6720	0	47913	
6721	0	47852	
6722	0	47789	
6723	0	47748	
6724	0	47775	
6725	0	47973	
6726	0	48237	
6727	0	48465	
6728	0	48708	
6729	0	48669	
6730	0	48577	
6731	0	48348	
6732	0	48200	
6733	0	47969	
6734	0	47925	
6735	0	48161	
6736	0	48341	
6737	0	48437	
6738	0	48573	
6739	0	48653	
6740	0	48613	
6741	0	48613	
6742	0	48672	
6743	0	48767	
6744	0	48737	
6745	0	48569	
6746	0	48364	
6747	0	48216	
6748	0	48377	
6749	0	48580	
6750	0	48828	
6751	0	49156	
6752	0	49393	
6753	0	49421	
6754	0	49367	
6755	0	49257	
6756	0	49089	
6757	0	49055	
6758	0	49031	
6759	0	49105	
6760	0	49156	
6761	0	49253	
6762	0	49333	
6763	0	49461	
6764	0	49399	
6765	0	49356	
6766	0	49441	
6767	0	49473	
6768	0	49517	
6769	0	49339	
6770	0	49085	
6771	0	49015	
6772	0	48972	
6773	0	49125	
6774	0	49253	
6775	0	49379	
6776	0	49396	
6777	0	49409	
6778	0	49401	
6779	0	49436	
6780	0	49345	
6781	0	49281	
6782	0	49257	
6783	0	49429	
6784	0	49542	
6785	0	49489	
6786	0	49480	
6787	0	49297	
6788	0	49117	
6789	0	49045	
6790	0	49117	
6791	0	49180	
6792	0	49284	
6793	0	49279	
6794	0	49263	
6795	0	49253	
6796	0	49273	
6797	0	49377	
6798	0	49331	
6799	0	49317	
6800	0	49372	
6801	0	49388	
6802	0	49453	
6803	0	49572	
6804	0	49685	
6805	0	49628	
6806	0	49513	
6807	0	49452	
6808	0	49261	
6809	0	49180	
6810	0	49236	
6811	0	49287	
6812	0	49384	
6813	0	49345	
6814	0	49359	
6815	0	49445	
6816	0	49559	
6817	0	49580	
6818	0	49413	
6819	0	49364	
6820	0	49381	
6821	0	49429	
6822	0	49468	
6823	0	49352	
6824	0	49413	
6825	0	49332	
6826	0	49303	
6827	0	49241	
6828	0	49096	
6829	0	49021	
6830	0	48917	
6831	0	48733	
6832	0	48607	
6833	0	48580	
6834	0	48625	
6835	0	48725	
6836	0	48781	
6837	0	48808	
6838	0	48837	
6839	0	48863	
6840	0	48865	
6841	0	48839	
6842	0	48686	
6843	0	48621	
6844	0	48521	
6845	0	48549	
6846	0	48500	
6847	0	48503	
6848	0	48425	
6849	0	48429	
6850	0	48421	
6851	0	48343	
6852	0	48343	
6853	0	48361	
6854	0	48333	
6855	0	48100	
6856	0	47877	
6857	0	47716	
6858	0	47661	
6859	0	47701	
6860	0	47924	
6861	0	48119	
6862	0	48197	
6863	0	48197	
6864	0	48192	
6865	0	47991	
6866	0	47855	
6867	0	47761	
6868	0	47689	
6869	0	47717	
6870	0	47705	
6871	0	47709	
6872	0	47658	
6873	0	47529	
6874	0	47412	
6875	0	47245	
6876	0	47133	
6877	0	47125	
6878	0	47075	
6879	0	47144	
6880	0	47293	
6881	0	47383	
6882	0	47455	
6883	0	47311	
6884	0	47297	
6885	0	47273	
6886	0	47269	
6887	0	47143	
6888	0	47133	
6889	0	47100	
6890	0	46953	
6891	0	47028	
6892	0	47069	
6893	0	47141	
6894	0	47227	
6895	0	47323	
6896	0	47289	
6897	0	47357	
6898	0	47413	
6899	0	47383	
6900	0	47277	
6901	0	47191	
6902	0	47135	
6903	0	47143	
6904	0	47247	
6905	0	47277	
6906	0	47373	
6907	0	47371	
6908	0	47277	
6909	0	47152	
6910	0	47109	
6911	0	47145	
6912	0	47185	
6913	0	47191	
6914	0	47165	
6915	0	47293	
6916	0	47364	
6917	0	47473	
6918	0	47591	
6919	0	47725	
6920	0	47657	
6921	0	47621	
6922	0	47645	
6923	0	47457	
6924	0	47336	
6925	0	47337	
6926	0	47372	
6927	0	47451	
6928	0	47453	
6929	0	47521	
6930	0	47516	
6931	0	47365	
6932	0	47343	
6933	0	47413	
6934	0	47461	
6935	0	47549	
6936	0	47525	
6937	0	47423	
6938	0	47351	
6939	0	47343	
6940	0	47269	
6941	0	47312	
6942	0	47253	
6943	0	47240	
6944	0	47248	
6945	0	47277	
6946	0	47317	
6947	0	47317	
6948	0	47289	
6949	0	47308	
6950	0	47268	
6951	0	47191	
6952	0	47140	
6953	0	47109	
6954	0	47209	
6955	0	47277	
6956	0	47489	
6957	0	47533	
6958	0	47551	
6959	0	47557	
6960	0	47325	
6961	0	47204	
6962	0	47159	
6963	0	47168	
6964	0	47268	
6965	0	47285	
6966	0	47261	
6967	0	47337	
6968	0	47297	
6969	0	47213	
6970	0	47209	
6971	0	47181	
6972	0	47117	
6973	0	47121	
6974	0	47201	
6975	0	47297	
6976	0	47401	
6977	0	47529	
6978	0	47611	
6979	0	47633	
6980	0	47604	
6981	0	47423	
6982	0	47237	
6983	0	47059	
6984	0	46948	
6985	0	46789	
6986	0	46697	
6987	0	46613	
6988	0	46672	
6989	0	46785	
6990	0	46780	
6991	0	46813	
6992	0	46741	
6993	0	46663	
6994	0	46605	
6995	0	46613	
6996	0	46669	
6997	0	46781	
6998	0	47103	
6999	0	47425	
7000	0	47621	
7001	0	47668	
7002	0	47628	
7003	0	47641	
7004	0	47721	
7005	0	47839	
7006	0	47981	
7007	0	48157	
7008	0	48196	
7009	0	48268	
7010	0	48391	
7011	0	48469	
7012	0	48648	
7013	0	48861	
7014	0	48933	
7015	0	49073	
7016	0	49202	
7017	0	49268	
7018	0	49241	
7019	0	49313	
7020	0	49364	
7021	0	49413	
7022	0	49396	
7023	0	49465	
7024	0	49492	
7025	0	49457	
7026	0	49431	
7027	0	49393	
7028	0	49273	
7029	0	49193	
7030	0	49064	
7031	0	48973	
7032	0	48868	
7033	0	48833	
7034	0	48637	
7035	0	48389	
7036	0	48100	
7037	0	47829	
7038	0	47669	
7039	0	47476	
7040	0	47265	
7041	0	46983	
7042	0	46543	
7043	0	46293	
7044	0	46109	
7045	0	45705	
7046	0	45404	
7047	0	45116	
7048	0	44751	
7049	0	44404	
7050	0	44071	
7051	0	43713	
7052	0	43215	
7053	0	42821	
7054	0	42461	
7055	0	41984	
7056	0	41677	
7057	0	41260	
7058	0	40889	
7059	0	40597	
7060	0	40275	
7061	0	40004	
7062	0	39637	
7063	0	39249	
7064	0	38949	
7065	0	38631	
7066	0	38171	
7067	0	37825	
7068	0	37428	
7069	0	36997	
7070	0	36655	
7071	0	36301	
7072	0	36089	
7073	0	35743	
7074	0	35436	
7075	0	35188	
7076	0	34776	
7077	0	34521	
7078	0	34280	
7079	0	34095	
7080	0	33933	
7081	0	33735	
7082	0	33401	
7083	0	33059	
7084	0	32696	
7085	0	32432	
7086	0	32201	
7087	0	32080	
7088	0	31911	
7089	0	31666	
7090	0	31533	
7091	0	31348	
7092	0	31201	
7093	0	31111	
7094	0	30951	
7095	0	30824	
7096	0	30660	
7097	0	30589	
7098	0	30460	
7099	0	30397	
7100	0	30369	
7101	0	30429	
7102	0	30372	
7103	0	30321	
7104	0	30241	
7105	0	30105	
7106	0	30057	
7107	0	30021	
7108	0	30002	
7109	0	30009	
7110	0	29912	
7111	0	29921	
7112	0	29949	
7113	0	29921	
7114	0	29873	
7115	0	29829	
7116	0	29862	
7117	0	29901	
7118	0	29949	
7119	0	29901	
7120	0	29868	
7121	0	29829	
7122	0	29757	
7123	0	29761	
7124	0	29679	
7125	0	29631	
7126	0	29580	
7127	0	29541	
7128	0	29487	
7129	0	29444	
7130	0	29517	
7131	0	29517	
7132	0	29463	
7133	0	29417	
7134	0	29429	
7135	0	29449	
7136	0	29424	
7137	0	29488	
7138	0	29501	
7139	0	29495	
7140	0	29387	
7141	0	29384	
7142	0	29349	
7143	0	29423	
7144	0	29469	
7145	0	29506	
7146	0	29577	
7147	0	29579	
7148	0	29569	
7149	0	29492	
7150	0	29453	
7151	0	29472	
7152	0	29463	
7153	0	29465	
7154	0	29500	
7155	0	29501	
7156	0	29585	
7157	0	29609	
7158	0	29504	
7159	0	29409	
7160	0	29368	
7161	0	29377	
7162	0	29379	
7163	0	29373	
7164	0	29345	
7165	0	29314	
7166	0	29293	
7167	0	29300	
7168	0	29300	
7169	0	29317	
7170	0	29312	
7171	0	29316	
7172	0	29277	
7173	0	29396	
7174	0	29321	
7175	0	29377	
7176	0	29301	
7177	0	29252	
7178	0	29259	
7179	0	29279	
7180	0	29261	
7181	0	29292	
7182	0	29365	
7183	0	29374	
7184	0	29316	
7185	0	29327	
7186	0	29273	
7187	0	29208	
7188	0	29192	
7189	0	29207	
7190	0	29204	
7191	0	29292	
7192	0	29285	
7193	0	29263	
7194	0	29264	
7195	0	29175	
7196	0	29155	
7197	0	29135	
7198	0	29041	
7199	0	28957	
7200	0	28863	
7201	0	28836	
7202	0	28919	
7203	0	28991	
7204	0	29008	
7205	0	29085	
7206	0	29079	
7207	0	29120	
7208	0	29123	
7209	0	29168	
7210	0	29129	
7211	0	29103	
7212	0	29089	
7213	0	29173	
7214	0	29139	
7215	0	29051	
7216	0	29098	
7217	0	29104	
7218	0	29058	
7219	0	28942	
7220	0	28877	
7221	0	28788	
7222	0	28849	
7223	0	28864	
7224	0	28940	
7225	0	29036	
7226	0	29033	
7227	0	28943	
7228	0	28921	
7229	0	28919	
7230	0	28917	
7231	0	28919	
7232	0	28932	
7233	0	28971	
7234	0	28989	
7235	0	29021	
7236	0	29031	
7237	0	29071	
7238	0	29025	
7239	0	29029	
7240	0	29108	
7241	0	29088	
7242	0	29033	
7243	0	29087	
7244	0	29030	
7245	0	29027	
7246	0	29055	
7247	0	29074	
7248	0	29097	
7249	0	28993	
7250	0	29108	
7251	0	29013	
7252	0	28973	
7253	0	28844	
7254	0	28812	
7255	0	28805	
7256	0	28865	
7257	0	28844	
7258	0	28909	
7259	0	28887	
7260	0	28861	
7261	0	28911	
7262	0	28845	
7263	0	28833	
7264	0	28709	
7265	0	28627	
7266	0	28615	
7267	0	28541	
7268	0	28591	
7269	0	28609	
7270	0	28570	
7271	0	28564	
7272	0	28589	
7273	0	28552	
7274	0	28597	
7275	0	28632	
7276	0	28626	
7277	0	28683	
7278	0	28612	
7279	0	28604	
7280	0	28560	
7281	0	28583	
7282	0	28667	
7283	0	28679	
7284	0	28715	
7285	0	28705	
7286	0	28564	
7287	0	28577	
7288	0	28606	
7289	0	28636	
7290	0	28640	
7291	0	28724	
7292	0	28737	
7293	0	28809	
7294	0	28849	
7295	0	28879	
7296	0	28833	
7297	0	28836	
7298	0	28824	
7299	0	28900	
7300	0	28824	
7301	0	28736	
7302	0	28661	
7303	0	28613	
7304	0	28652	
7305	0	28708	
7306	0	28844	
7307	0	28873	
7308	0	28884	
7309	0	28867	
7310	0	28808	
7311	0	28825	
7312	0	28809	
7313	0	28762	
7314	0	28743	
7315	0	28733	
7316	0	28745	
7317	0	28743	
7318	0	28769	
7319	0	28817	
7320	0	28863	
7321	0	28873	
7322	0	28835	
7323	0	28879	
7324	0	28900	
7325	0	28852	
7326	0	28831	
7327	0	28757	
7328	0	28727	
7329	0	28681	
7330	0	28689	
7331	0	28695	
7332	0	28760	
7333	0	28772	
7334	0	28841	
7335	0	28821	
7336	0	28909	
7337	0	28903	
7338	0	28925	
7339	0	28892	
7340	0	28869	
7341	0	28820	
7342	0	28765	
7343	0	28773	
7344	0	28748	
7345	0	28711	
7346	0	28769	
7347	0	28773	
7348	0	28868	
7349	0	28827	
7350	0	28818	
7351	0	28713	
7352	0	28741	
7353	0	28736	
7354	0	28692	
7355	0	28730	
7356	0	28805	
7357	0	28799	
7358	0	28816	
7359	0	28921	
7360	0	28924	
7361	0	28977	
7362	0	28925	
7363	0	28925	
7364	0	28951	
7365	0	28933	
7366	0	28853	
7367	0	28893	
7368	0	28896	
7369	0	28817	
7370	0	28829	
7371	0	28848	
7372	0	28861	
7373	0	28910	
7374	0	28895	
7375	0	28949	
7376	0	28991	
7377	0	29052	
7378	0	29001	
7379	0	28949	
7380	0	28995	
7381	0	29016	
7382	0	29023	
7383	0	29001	
7384	0	29044	
7385	0	28995	
7386	0	28903	
7387	0	28913	
7388	0	28948	
7389	0	28905	
7390	0	28873	
7391	0	28753	
7392	0	28745	
7393	0	28792	
7394	0	28740	
7395	0	28785	
7396	0	28773	
7397	0	28735	
7398	0	28789	
7399	0	28852	
7400	0	28855	
7401	0	28773	
7402	0	28965	
7403	0	29007	
7404	0	29044	
7405	0	29080	
7406	0	29051	
7407	0	29027	
7408	0	28992	
7409	0	28957	
7410	0	28976	
7411	0	28909	
7412	0	28855	
7413	0	28849	
7414	0	28945	
7415	0	28885	
7416	0	28935	
7417	0	28879	
7418	0	28905	
7419	0	28945	
7420	0	28927	
7421	0	28861	
7422	0	28937	
7423	0	28879	
7424	0	28831	
7425	0	28799	
7426	0	28847	
7427	0	28837	
7428	0	28770	
7429	0	28701	
7430	0	28748	
7431	0	28725	
7432	0	28768	
7433	0	28821	
7434	0	28804	
7435	0	28903	
7436	0	29044	
7437	0	29021	
7438	0	28919	
7439	0	28812	
7440	0	28853	
7441	0	28851	
7442	0	28815	
7443	0	28825	
7444	0	28893	
7445	0	28911	
7446	0	28909	
7447	0	28907	
7448	0	28943	
7449	0	28939	
7450	0	28909	
7451	0	28948	
7452	0	28929	
7453	0	28877	
7454	0	28814	
7455	0	28723	
7456	0	28695	
7457	0	28612	
7458	0	28725	
7459	0	28749	
7460	0	28797	
7461	0	28752	
7462	0	28777	
7463	0	28747	
7464	0	28785	
7465	0	28836	
7466	0	28941	
7467	0	28941	
7468	0	28933	
7469	0	28903	
7470	0	28869	
7471	0	28885	
7472	0	28923	
7473	0	28953	
7474	0	28933	
7475	0	28945	
7476	0	28888	
7477	0	28869	
7478	0	28935	
7479	0	28999	
7480	0	28895	
7481	0	28903	
7482	0	28837	
7483	0	28901	
7484	0	28879	
7485	0	28839	
7486	0	28755	
7487	0	28756	
7488	0	28806	
7489	0	28827	
7490	0	28829	
7491	0	28764	
7492	0	28796	
7493	0	28739	
7494	0	28713	
7495	0	28769	
7496	0	28773	
7497	0	28839	
7498	0	28759	
7499	0	28730	
7500	0	28721	
7501	0	28802	
7502	0	28857	
7503	0	28876	
7504	0	28796	
7505	0	28763	
7506	0	28791	
7507	0	28793	
7508	0	28881	
7509	0	28905	
7510	0	28841	
7511	0	28900	
7512	0	28869	
7513	0	28807	
7514	0	28867	
7515	0	28865	
7516	0	28860	
7517	0	28815	
7518	0	28857	
7519	0	28919	
7520	0	28965	
7521	0	28977	
7522	0	28976	
7523	0	28989	
7524	0	29023	
7525	0	29069	
7526	0	29113	
7527	0	29220	
7528	0	29245	
7529	0	29241	
7530	0	29324	
7531	0	29353	
7532	0	29392	
7533	0	29507	
7534	0	29556	
7535	0	29620	
7536	0	29695	
7537	0	29721	
7538	0	29763	
7539	0	29717	
7540	0	29773	
7541	0	29710	
7542	0	29692	
7543	0	29681	
7544	0	29657	
7545	0	29551	
7546	0	29556	
7547	0	29571	
7548	0	29556	
7549	0	29521	
7550	0	29501	
7551	0	29477	
7552	0	29389	
7553	0	29319	
7554	0	29359	
7555	0	29289	
7556	0	29272	
7557	0	29189	
7558	0	29159	
7559	0	29108	
7560	0	29135	
7561	0	29129	
7562	0	29125	
7563	0	29177	
7564	0	29129	
7565	0	29108	
7566	0	29101	
7567	0	29212	
7568	0	29231	
7569	0	29393	
7570	0	29331	
7571	0	29170	
7572	0	29103	
7573	0	29112	
7574	0	29129	
7575	0	29031	
7576	0	29060	
7577	0	28997	
7578	0	29018	
7579	0	29072	
7580	0	29136	
7581	0	29164	
7582	0	29070	
7583	0	29041	
7584	0	28897	
7585	0	28949	
7586	0	29005	
7587	0	28924	
7588	0	28932	
7589	0	29013	
7590	0	28997	
7591	0	28977	
7592	0	29048	
7593	0	29119	
7594	0	29137	
7595	0	29092	
7596	0	29109	
7597	0	29101	
7598	0	29116	
7599	0	29156	
7600	0	29133	
7601	0	29151	
7602	0	29148	
7603	0	29112	
7604	0	28996	
7605	0	28937	
7606	0	28931	
7607	0	29088	
7608	0	29070	
7609	0	28957	
7610	0	28972	
7611	0	29047	
7612	0	29105	
7613	0	29123	
7614	0	29080	
7615	0	29107	
7616	0	29084	
7617	0	29110	
7618	0	29133	
7619	0	29164	
7620	0	29069	
7621	0	29044	
7622	0	29141	
7623	0	29189	
7624	0	29293	
7625	0	29277	
7626	0	29278	
7627	0	29313	
7628	0	29300	
7629	0	29261	
7630	0	29266	
7631	0	29301	
7632	0	29297	
7633	0	29369	
7634	0	29349	
7635	0	29360	
7636	0	29248	
7637	0	29292	
7638	0	29317	
7639	0	29325	
7640	0	29272	
7641	0	29281	
7642	0	29277	
7643	0	29340	
7644	0	29347	
7645	0	29447	
7646	0	29451	
7647	0	29531	
7648	0	29434	
7649	0	29489	
7650	0	29464	
7651	0	29554	
7652	0	29440	
7653	0	29390	
7654	0	29357	
7655	0	29311	
7656	0	29304	
7657	0	29285	
7658	0	29317	
7659	0	29281	
7660	0	29324	
7661	0	29361	
7662	0	29363	
7663	0	29421	
7664	0	29433	
7665	0	29472	
7666	0	29533	
7667	0	29501	
7668	0	29479	
7669	0	29457	
7670	0	29367	
7671	0	29333	
7672	0	29315	
7673	0	29330	
7674	0	29424	
7675	0	29432	
7676	0	29409	
7677	0	29489	
7678	0	29451	
7679	0	29487	
7680	0	29456	
7681	0	29471	
7682	0	29378	
7683	0	29411	
7684	0	29421	
7685	0	29514	
7686	0	29551	
7687	0	29596	
7688	0	29568	
7689	0	29489	
7690	0	29545	
7691	0	29609	
7692	0	29567	
7693	0	29541	
7694	0	29519	
7695	0	29460	
7696	0	29444	
7697	0	29485	
7698	0	29526	
7699	0	29452	
7700	0	29420	
7701	0	29414	
7702	0	29445	
7703	0	29412	
7704	0	29483	
7705	0	29505	
7706	0	29399	
7707	0	29328	
7708	0	29283	
7709	0	29343	
7710	0	29371	
7711	0	29337	
7712	0	29341	
7713	0	29353	
7714	0	29292	
7715	0	29333	
7716	0	29443	
7717	0	29480	
7718	0	29489	
7719	0	29475	
7720	0	29513	
7721	0	29598	
7722	0	29616	
7723	0	29621	
7724	0	29551	
7725	0	29576	
7726	0	29604	
7727	0	29634	
7728	0	29529	
7729	0	29477	
7730	0	29483	
7731	0	29515	
7732	0	29513	
7733	0	29504	
7734	0	29573	
7735	0	29631	
7736	0	29489	
7737	0	29496	
7738	0	29457	
7739	0	29571	
7740	0	29637	
7741	0	29637	
7742	0	29661	
7743	0	29679	
7744	0	29583	
7745	0	29573	
7746	0	29600	
7747	0	29599	
7748	0	29545	
7749	0	29473	
7750	0	29537	
7751	0	29621	
7752	0	29619	
7753	0	29564	
7754	0	29621	
7755	0	29669	
7756	0	29712	
7757	0	29693	
7758	0	29756	
7759	0	29781	
7760	0	29825	
7761	0	29733	
7762	0	29685	
7763	0	29715	
7764	0	29769	
7765	0	29773	
7766	0	29821	
7767	0	29809	
7768	0	29849	
7769	0	29813	
7770	0	29833	
7771	0	29869	
7772	0	29829	
7773	0	29829	
7774	0	29773	
7775	0	29757	
7776	0	29729	
7777	0	29641	
7778	0	29698	
7779	0	29711	
7780	0	29764	
7781	0	29801	
7782	0	29816	
7783	0	29785	
7784	0	29831	
7785	0	29783	
7786	0	29777	
7787	0	29807	
7788	0	29793	
7789	0	29804	
7790	0	29797	
7791	0	29797	
7792	0	29787	
7793	0	29749	
7794	0	29719	
7795	0	29847	
7796	0	29905	
7797	0	29932	
7798	0	29969	
7799	0	30012	
7800	0	30064	
7801	0	30069	
7802	0	30081	
7803	0	29921	
7804	0	29881	
7805	0	29823	
7806	0	29792	
7807	0	29893	
7808	0	29873	
7809	0	29865	
7810	0	29887	
7811	0	29856	
7812	0	29820	
7813	0	29869	
7814	0	29796	
7815	0	29776	
7816	0	29767	
7817	0	29749	
7818	0	29797	
7819	0	29811	
7820	0	29772	
7821	0	29813	
7822	0	29795	
7823	0	29775	
7824	0	29807	
7825	0	29767	
7826	0	29821	
7827	0	29824	
7828	0	29773	
7829	0	29796	
7830	0	29763	
7831	0	29751	
7832	0	29733	
7833	0	29753	
7834	0	29711	
7835	0	29726	
7836	0	29745	
7837	0	29732	
7838	0	29765	
7839	0	29685	
7840	0	29601	
7841	0	29556	
7842	0	29633	
7843	0	29593	
7844	0	29733	
7845	0	29773	
7846	0	29722	
7847	0	29660	
7848	0	29617	
7849	0	29748	
7850	0	29785	
7851	0	29757	
7852	0	29625	
7853	0	29597	
7854	0	29534	
7855	0	29548	
7856	0	29537	
7857	0	29597	
7858	0	29535	
7859	0	29575	
7860	0	29599	
7861	0	29607	
7862	0	29641	
7863	0	29590	
7864	0	29543	
7865	0	29541	
7866	0	29568	
7867	0	29616	
7868	0	29567	
7869	0	29533	
7870	0	29618	
7871	0	29679	
7872	0	29664	
7873	0	29692	
7874	0	29719	
7875	0	29689	
7876	0	29609	
7877	0	29548	
7878	0	29549	
7879	0	29501	
7880	0	29525	
7881	0	29572	
7882	0	29581	
7883	0	29582	
7884	0	29587	
7885	0	29709	
7886	0	29737	
7887	0	29675	
7888	0	29584	
7889	0	29601	
7890	0	29649	
7891	0	29585	
7892	0	29564	
7893	0	29548	
7894	0	29615	
7895	0	29633	
7896	0	29689	
7897	0	29757	
7898	0	29784	
7899	0	29725	
7900	0	29716	
7901	0	29623	
7902	0	29645	
7903	0	29692	
7904	0	29690	
7905	0	29645	
7906	0	29699	
7907	0	29688	
7908	0	29627	
7909	0	29673	
7910	0	29768	
7911	0	29711	
7912	0	29807	
7913	0	29779	
7914	0	29909	
7915	0	29933	
7916	0	29937	
7917	0	29949	
7918	0	29911	
7919	0	29827	
7920	0	29709	
7921	0	29708	
7922	0	29697	
7923	0	29707	
7924	0	29807	
7925	0	29769	
7926	0	29769	
7927	0	29825	
7928	0	29862	
7929	0	29927	
7930	0	29956	
7931	0	29983	
7932	0	30011	
7933	0	30016	
7934	0	30036	
7935	0	30070	
7936	0	30025	
7937	0	30033	
7938	0	30044	
7939	0	29989	
7940	0	29953	
7941	0	29921	
7942	0	29856	
7943	0	29796	
7944	0	29819	
7945	0	29823	
7946	0	29873	
7947	0	29874	
7948	0	29853	
7949	0	29921	
7950	0	29937	
7951	0	29941	
7952	0	29868	
7953	0	29811	
7954	0	29781	
7955	0	29720	
7956	0	29669	
7957	0	29660	
7958	0	29695	
7959	0	29642	
7960	0	29741	
7961	0	29797	
7962	0	29769	
7963	0	29676	
7964	0	29720	
7965	0	29719	
7966	0	29708	
7967	0	29741	
7968	0	29756	
7969	0	29761	
7970	0	29845	
7971	0	29865	
7972	0	29867	
7973	0	29788	
7974	0	29739	
7975	0	29727	
7976	0	29725	
7977	0	29777	
7978	0	29741	
7979	0	29756	
7980	0	29794	
7981	0	29857	
7982	0	29793	
7983	0	29821	
7984	0	29795	
7985	0	29797	
7986	0	29725	
7987	0	29717	
7988	0	29780	
7989	0	29899	
7990	0	29848	
7991	0	29757	
7992	0	29685	
7993	0	29609	
7994	0	29509	
7995	0	29455	
7996	0	29409	
7997	0	29380	
7998	0	29483	
7999	0	29501	
8000	0	29537	
8001	0	29655	
8002	0	29721	
8003	0	29762	
8004	0	29724	
8005	0	29718	
8006	0	29765	
8007	0	29775	
8008	0	29770	
8009	0	29821	
8010	0	29800	
8011	0	29757	
8012	0	29781	
8013	0	29784	
8014	0	29724	
8015	0	29765	
8016	0	29672	
8017	0	29751	
8018	0	29790	
8019	0	29807	
8020	0	29813	
8021	0	29727	
8022	0	29702	
8023	0	29697	
8024	0	29729	
8025	0	29740	
8026	0	29705	
8027	0	29717	
8028	0	29773	
8029	0	29860	
8030	0	29855	
8031	0	29910	
8032	0	29845	
8033	0	29857	
8034	0	29831	
8035	0	29875	
8036	0	29941	
8037	0	29988	
8038	0	30025	
8039	0	29987	
8040	0	29940	
8041	0	30000	
8042	0	29928	
8043	0	29967	
8044	0	29982	
8045	0	30079	
8046	0	30132	
8047	0	30060	
